Data from HR4C34221__1__21-24-37-893.txt Node

Date: Fri Apr 11 21:24:37 MSK 2025
User: 123
Spectrometer: HR4C3422
Trigger mode: 4
Integration Time (sec): 3,000000E-3
Scans to average: 10
Electric dark correction enabled: true
Nonlinearity correction enabled: false
Boxcar width: 0
XAxis mode: Wavelengths
Number of Pixels in Spectrum: 3648
>>>>>Begin Spectral Data<<<<<
195,326	-574,35
195,597	-574,35
195,868	-574,35
196,139	-23,65
196,409	-7,65
196,68	-9,65
196,951	-9,25
197,221	-11,65
197,492	-7,45
197,762	-6,65
198,033	-14,35
198,304	180,35
198,574	-80,15
198,845	-14,55
199,116	-6,85
199,386	-7,25
199,657	-6,95
199,927	-5,65
200,198	-2,85
200,468	-4,15
200,739	-14,55
201,009	180,05
201,28	-77,55
201,551	-18,65
201,821	-3,85
202,092	-8,45
202,362	-4,15
202,633	-2,75
202,903	-6,45
203,174	-8,35
203,444	-13,95
203,714	180,15
203,985	-76,85
204,255	-13,85
204,526	-6,85
204,796	-7,35
205,067	-5,95
205,337	-7,85
205,607	-3,15
205,878	-2,35
206,148	-11,65
206,419	185,75
206,689	-75,75
206,959	-16,35
207,23	-6,65
207,5	-3,05
207,77	-1,35
208,041	-3,05
208,311	-2,75
208,581	-1,85
208,852	-11,75
209,122	183,35
209,392	-75,45
209,663	-15,15
209,933	-6,45
210,203	-7,25
210,473	-5,95
210,744	-2,65
211,014	-2,85
211,284	-4,05
211,554	-12,45
211,825	178,45
212,095	-75,35
212,365	-16,25
212,635	-3,15
212,905	-4,55
213,176	-1,85
213,446	-2,95
213,716	0,95
213,986	-6,95
214,256	-12,45
214,526	182,25
214,797	-72,95
215,067	-13,45
215,337	-5,65
215,607	-4,65
215,877	-2,85
216,147	-3,05
216,417	-5,65
216,687	-2,05
216,957	-10,95
217,227	181,35
217,497	-74,65
217,767	-15,35
218,038	-1,65
218,308	-0,25
218,578	-2,95
218,848	-3,45
219,118	-2,15
219,388	-1,65
219,658	-12,55
219,928	184,45
220,198	-76,15
220,468	-13,25
220,737	-2,45
221,007	-0,85
221,277	-4,65
221,547	-2,55
221,817	-8,25
222,087	-2,45
222,357	-11,25
222,627	183,45
222,897	-78,15
223,167	-18,05
223,437	-5,95
223,707	-3,85
223,976	-7,05
224,246	2,25
224,516	-0,65
224,786	-3,45
225,056	-11,15
225,326	180,95
225,595	-75,45
225,865	-16,25
226,135	-1,75
226,405	2,75
226,675	-3,85
226,944	-1,55
227,214	-2,65
227,484	-2,95
227,754	-13,55
228,023	182,25
228,293	-74,45
228,563	-15,85
228,833	-6,25
229,102	-2,25
229,372	-4,15
229,642	-5,15
229,911	-4,95
230,181	-4,45
230,451	-13,85
230,72	179,65
230,99	-75,25
231,26	-14,75
231,529	-7,25
231,799	-6,15
232,069	-3,15
232,338	-2,25
232,608	-0,65
232,877	-0,95
233,147	-10,85
233,417	185,75
233,686	-78,55
233,956	-15,35
234,225	-2,35
234,495	-6,85
234,764	1,05
235,034	-2,35
235,304	-2,25
235,573	-0,85
235,843	-7,95
236,112	182,65
236,382	-77,45
236,651	-16,05
236,921	-4,15
237,19	-3,05
237,46	-3,85
237,729	-1,65
237,998	0,05
238,268	-3,15
238,537	-12,65
238,807	181,35
239,076	-77,65
239,346	-16,05
239,615	0,05
239,884	-3,85
240,154	-3,85
240,423	-1,65
240,693	-2,55
240,962	-1,05
241,231	-10,35
241,501	178,95
241,77	-78,25
242,039	-20,75
242,309	-3,65
242,578	-1,35
242,847	-2,15
243,116	-4,85
243,386	-3,55
243,655	-5,45
243,924	-17,35
244,194	178,65
244,463	-76,45
244,732	-18,25
245,001	-1,95
245,271	-2,45
245,54	-2,85
245,809	-4,35
246,078	-3,85
246,347	-2,15
246,617	-11,35
246,886	182,75
247,155	-74,55
247,424	-15,75
247,693	-2,95
247,963	-6,15
248,232	-3,25
248,501	-6,85
248,77	-2,95
249,039	-1,55
249,308	-13,95
249,577	179,95
249,846	-77,35
250,115	-18,25
250,385	-6,65
250,654	-3,85
250,923	-4,25
251,192	-5,75
251,461	-5,65
251,73	-5,05
251,999	-14,35
252,268	181,45
252,537	-75,55
252,806	-19,25
253,075	-6,25
253,344	-6,85
253,613	-2,75
253,882	-0,95
254,151	-0,75
254,42	-2,25
254,689	-11,25
254,958	176,35
255,227	-76,25
255,496	-14,15
255,765	-2,15
256,033	-4,05
256,302	-4,25
256,571	-5,65
256,84	-4,75
257,109	0,85
257,378	-14,25
257,647	179,95
257,916	-76,05
258,184	-18,45
258,453	-4,35
258,722	-9,65
258,991	-0,15
259,26	-2,65
259,529	-6,35
259,797	-6,35
260,066	-10,95
260,335	180,25
260,604	-79,65
260,873	-22,15
261,141	-2,95
261,41	-2,85
261,679	-4,65
261,948	-6,35
262,216	-4,85
262,485	-5,85
262,754	-15,85
263,022	178,45
263,291	-79,55
263,56	-20,05
263,829	-5,65
264,097	-8,95
264,366	-7,85
264,635	-8,85
264,903	-5,85
265,172	-3,85
265,44	-14,95
265,709	181,55
265,978	-77,05
266,246	-18,15
266,515	-6,15
266,784	-9,65
267,052	-6,75
267,321	-1,45
267,589	-3,45
267,858	-6,05
268,126	-10,95
268,395	178,65
268,663	-81,65
268,932	-22,15
269,201	-3,25
269,469	-6,25
269,738	-2,55
270,006	-3,85
270,275	-6,95
270,543	-4,65
270,811	-15,65
271,08	178,55
271,348	-76,45
271,617	-17,95
271,885	-6,85
272,154	-6,15
272,422	-8,25
272,691	-11,25
272,959	-4,85
273,227	-6,45
273,496	-11,45
273,764	179,65
274,033	-78,45
274,301	-12,45
274,569	-5,85
274,838	-3,55
275,106	-3,15
275,374	-3,95
275,643	-3,75
275,911	-3,85
276,179	-14,55
276,448	179,75
276,716	-79,25
276,984	-18,95
277,252	-9,75
277,521	-2,75
277,789	-4,05
278,057	-6,15
278,325	-8,55
278,594	-8,45
278,862	-16,75
279,13	176,65
279,398	-78,15
279,667	-17,45
279,935	-5,85
280,203	-5,45
280,471	-5,15
280,739	-4,85
281,008	-5,05
281,276	-3,95
281,544	-15,75
281,812	178,05
282,08	-81,55
282,348	-18,05
282,616	-8,35
282,884	-6,15
283,153	-6,85
283,421	-6,85
283,689	-3,75
283,957	-6,55
284,225	-17,35
284,493	174,95
284,761	-78,75
285,029	-20,15
285,297	-8,15
285,565	-3,45
285,833	-1,85
286,101	-7,85
286,369	-3,85
286,637	-5,45
286,905	-13,45
287,173	174,55
287,441	-74,75
287,709	-19,05
287,977	-9,65
288,245	-6,55
288,513	-6,05
288,781	-4,55
289,049	-9,75
289,317	-6,55
289,585	-18,55
289,853	176,85
290,12	-77,95
290,388	-18,15
290,656	-6,75
290,924	-2,05
291,192	-4,05
291,46	-9,15
291,728	-7,55
291,996	-7,25
292,263	-17,35
292,531	176,05
292,799	-79,65
293,067	-21,65
293,335	-8,05
293,602	-7,75
293,87	-3,35
294,138	-5,45
294,406	-4,75
294,673	-4,65
294,941	-12,05
295,209	178,85
295,477	-80,55
295,744	-18,85
296,012	-9,55
296,28	-7,55
296,548	-8,15
296,815	-4,65
297,083	-10,85
297,351	-8,55
297,618	-21,05
297,886	177,15
298,154	-82,55
298,421	-18,95
298,689	-8,15
298,956	-4,85
299,224	-6,45
299,492	-5,75
299,759	-3,45
300,027	-6,65
300,294	-13,25
300,562	176,65
300,83	-76,25
301,097	-15,65
301,365	-8,85
301,632	-9,05
301,9	-7,75
302,167	-10,75
302,435	-9,95
302,702	-7,75
302,97	-14,55
303,237	171,95
303,505	-80,35
303,772	-23,55
304,04	-9,15
304,307	-10,95
304,575	-8,35
304,842	-6,75
305,11	0,85
305,377	-4,15
305,645	-11,85
305,912	175,25
306,179	-78,45
306,447	-20,35
306,714	-9,25
306,982	-10,95
307,249	-6,55
307,516	-10,35
307,784	-8,45
308,051	-3,75
308,318	-17,15
308,586	176,45
308,853	-74,05
309,12	-22,15
309,388	-11,15
309,655	-12,35
309,922	-3,75
310,19	-5,55
310,457	-5,15
310,724	-4,95
310,991	-15,05
311,259	177,85
311,526	-77,45
311,793	-22,65
312,06	-9,35
312,328	-10,75
312,595	-8,25
312,862	-6,75
313,129	-4,75
313,396	-9,45
313,664	-18,25
313,931	176,35
314,198	-78,85
314,465	-19,25
314,732	-12,65
314,999	-7,15
315,266	-4,95
315,534	-7,75
315,801	-7,75
316,068	-4,25
316,335	-14,65
316,602	179,25
316,869	-79,75
317,136	-19,95
317,403	-5,85
317,67	-5,15
317,937	-1,65
318,204	-7,95
318,471	-8,25
318,738	-9,25
319,005	-17,75
319,272	179,05
319,539	-80,75
319,806	-24,15
320,073	-8,35
320,34	-10,25
320,607	-9,75
320,874	-6,95
321,141	-6,75
321,408	-3,75
321,675	-14,15
321,942	175,85
322,209	-79,45
322,476	-19,35
322,743	-8,15
323,01	-11,05
323,277	-3,25
323,544	-6,25
323,81	-9,55
324,077	-6,65
324,344	-15,45
324,611	170,45
324,878	-83,45
325,145	-15,25
325,412	-8,25
325,678	-7,15
325,945	-10,85
326,212	-9,65
326,479	-8,75
326,746	-8,15
327,012	-14,85
327,279	178,75
327,546	-81,05
327,813	-19,45
328,079	-6,05
328,346	-0,55
328,613	-3,55
328,88	-10,15
329,146	-4,75
329,413	-9,25
329,68	-19,65
329,946	174,05
330,213	-78,65
330,48	-21,65
330,746	-11,95
331,013	-7,55
331,28	-6,05
331,546	-9,15
331,813	-8,15
332,08	-7,65
332,346	-16,85
332,613	171,75
332,879	-74,95
333,146	-19,35
333,413	-6,95
333,679	-6,95
333,946	-5,15
334,212	-6,15
334,479	-7,85
334,745	-6,25
335,012	-14,95
335,278	174,85
335,545	-79,85
335,811	-17,55
336,078	-8,35
336,344	-5,65
336,611	-6,15
336,877	-6,55
337,144	-7,35
337,41	-13,45
337,677	-19,35
337,943	172,05
338,21	-83,25
338,476	-20,75
338,742	-9,55
339,009	-4,15
339,275	-6,05
339,542	-9,35
339,808	-4,65
340,074	-3,35
340,341	-17,15
340,607	174,15
340,873	-75,85
341,14	-20,45
341,406	-9,15
341,672	-6,15
341,939	-7,95
342,205	-9,85
342,471	-6,55
342,738	-2,85
343,004	-13,55
343,27	173,15
343,537	-78,75
343,803	-20,05
344,069	-6,85
344,335	-8,55
344,602	-6,55
344,868	-6,05
345,134	-6,45
345,4	-5,95
345,666	-20,65
345,933	176,15
346,199	-78,15
346,465	-19,55
346,731	-5,45
346,997	-4,85
347,263	-6,65
347,53	-6,35
347,796	-3,15
348,062	-8,15
348,328	-17,65
348,594	172,25
348,86	-83,25
349,126	-20,25
349,392	-9,75
349,659	-8,05
349,925	-7,65
350,191	-9,65
350,457	-7,55
350,723	-7,85
350,989	-16,75
351,255	177,95
351,521	-74,35
351,787	-17,95
352,053	-7,85
352,319	-5,55
352,585	-6,65
352,851	-3,65
353,117	-5,35
353,383	-5,65
353,649	-18,55
353,915	177,65
354,181	-74,85
354,447	-19,15
354,713	-5,45
354,978	-2,95
355,244	-2,95
355,51	-6,35
355,776	-8,95
356,042	-0,75
356,308	-15,35
356,574	172,75
356,84	-78,45
357,106	-17,55
357,371	-5,95
357,637	-8,25
357,903	-5,55
358,169	-11,35
358,435	-3,75
358,701	-4,75
358,966	-15,95
359,232	174,75
359,498	-79,75
359,764	-18,95
360,029	-6,95
360,295	-8,35
360,561	-7,65
360,827	-6,65
361,092	-3,35
361,358	-5,55
361,624	-17,05
361,89	173,85
362,155	-74,05
362,421	-12,95
362,687	-3,55
362,952	-2,15
363,218	-1,35
363,484	-7,05
363,749	-10,25
364,015	-6,15
364,281	-13,55
364,546	173,15
364,812	-81,35
365,077	-18,35
365,343	-6,35
365,609	-5,65
365,874	-7,15
366,14	-6,75
366,405	-3,15
366,671	-5,65
366,936	-16,55
367,202	173,65
367,467	-79,45
367,733	-22,25
367,999	-8,85
368,264	-7,85
368,53	-6,05
368,795	-5,85
369,061	-2,55
369,326	-8,75
369,591	-14,05
369,857	175,05
370,122	-78,15
370,388	-16,15
370,653	-9,25
370,919	-7,75
371,184	-6,25
371,45	-6,45
371,715	-7,05
371,98	-5,95
372,246	-16,95
372,511	176,95
372,776	-74,85
373,042	-9,85
373,307	-4,65
373,573	-4,05
373,838	-2,65
374,103	-8,65
374,369	-5,15
374,634	-6,75
374,899	-20,85
375,164	179,15
375,43	-75,95
375,695	-17,35
375,96	-5,85
376,226	-1,95
376,491	-4,55
376,756	-6,25
377,021	-6,65
377,286	-2,95
377,552	-16,35
377,817	179,25
378,082	-77,05
378,347	-21,25
378,613	-4,55
378,878	-2,75
379,143	-6,25
379,408	-10,65
379,673	-5,45
379,938	-8,05
380,203	-15,75
380,469	177,55
380,734	-72,65
380,999	-17,25
381,264	-2,25
381,529	-2,75
381,794	-1,05
382,059	-8,05
382,324	-5,75
382,589	-1,25
382,854	-14,25
383,119	175,95
383,385	-73,95
383,65	-16,15
383,915	-6,45
384,18	-5,65
384,445	-7,35
384,71	-3,85
384,975	-7,95
385,24	-1,95
385,505	-17,25
385,77	179,65
386,034	-73,55
386,299	-17,05
386,564	-7,15
386,829	-3,25
387,094	-8,55
387,359	-2,55
387,624	-1,65
387,889	-0,65
388,154	-10,05
388,419	177,35
388,684	-74,75
388,949	-19,15
389,213	-2,55
389,478	1,55
389,743	-4,05
390,008	-4,15
390,273	-4,75
390,538	-5,65
390,802	-13,85
391,067	177,25
391,332	-76,15
391,597	-16,65
391,862	-3,55
392,126	-0,05
392,391	-2,05
392,656	-4,05
392,921	-4,75
393,185	-3,45
393,45	-14,05
393,715	178,55
393,979	-72,55
394,244	-17,35
394,509	-8,45
394,774	-5,95
395,038	-4,75
395,303	-1,75
395,568	-7,55
395,832	-4,15
396,097	-12,55
396,361	181,35
396,626	-72,15
396,891	-14,75
397,155	-2,75
397,42	-1,95
397,685	-2,45
397,949	-5,05
398,214	0,65
398,478	-2,85
398,743	-15,25
399,007	174,85
399,272	-74,85
399,536	-12,45
399,801	-6,15
400,066	-3,25
400,33	-4,95
400,595	-2,95
400,859	-4,45
401,124	-6,95
401,388	-16,05
401,652	181,85
401,917	-74,05
402,181	-18,55
402,446	-1,25
402,71	-4,35
402,975	-2,35
403,239	-6,85
403,504	-3,25
403,768	-8,85
404,032	-14,15
404,297	179,25
404,561	-74,45
404,826	-14,25
405,09	-4,35
405,354	-2,75
405,619	0,75
405,883	-6,45
406,147	-3,75
406,412	-2,75
406,676	-12,45
406,94	179,55
407,205	-72,25
407,469	-14,35
407,733	-2,15
407,997	-4,55
408,262	-6,65
408,526	-6,75
408,79	-5,85
409,054	-7,35
409,319	-13,55
409,583	178,25
409,847	-76,05
410,111	-17,15
410,375	-8,95
410,64	-2,25
410,904	-6,05
411,168	-6,35
411,432	-2,35
411,696	0,45
411,96	-10,65
412,225	175,45
412,489	-73,75
412,753	-14,15
413,017	-2,85
413,281	-2,45
413,545	1,15
413,809	-4,25
414,073	-2,05
414,337	-1,35
414,602	-12,15
414,866	180,15
415,13	-70,65
415,394	-15,95
415,658	-4,85
415,922	-0,35
416,186	-3,35
416,45	-2,15
416,714	-0,25
416,978	-0,05
417,242	-11,35
417,506	182,45
417,77	-70,75
418,034	-12,05
418,298	-0,65
418,562	-1,55
418,825	-5,15
419,089	-1,05
419,353	-1,25
419,617	-0,15
419,881	-13,25
420,145	179,95
420,409	-70,65
420,673	-11,85
420,937	-0,75
421,2	0,15
421,464	1,05
421,728	-1,55
421,992	5,05
422,256	2,35
422,52	-6,05
422,783	185,05
423,047	-65,65
423,311	-7,25
423,575	6,35
423,839	6,55
424,102	10,15
424,366	8,95
424,63	11,15
424,894	8,45
425,157	6,85
425,421	196,55
425,685	-52,55
425,949	9,25
426,212	25,15
426,476	24,65
426,74	32,75
427,003	34,35
427,267	41,65
427,531	47,75
427,794	53,35
428,058	252,65
428,322	9,85
428,585	79,45
428,849	110,65
429,112	116,75
429,376	155,55
429,64	158,55
429,903	202,15
430,167	208,15
430,43	258,15
430,694	472,45
430,957	250,25
431,221	348,25
431,485	413,15
431,748	427,05
432,012	519,45
432,275	520,55
432,539	608,55
432,802	644,15
433,066	697,45
433,329	916,75
433,593	783,85
433,856	837,45
434,119	930,55
434,383	983,55
434,646	1050,45
434,91	1092,95
435,173	1249,35
435,437	1247,75
435,7	1332,15
435,963	1563,75
436,227	1396,45
436,49	1544,15
436,753	1599,95
437,017	1649,25
437,28	1802,15
437,544	1907,75
437,807	1989,45
438,07	1987,35
438,334	2127,45
438,597	2379,35
438,86	2275,05
439,123	2422,25
439,387	2517,35
439,65	2624,35
439,913	2835,45
440,177	2818,45
440,44	2973,45
440,703	3145,05
440,966	3180,25
441,229	3541,35
441,493	3418,35
441,756	3707,15
442,019	3769,65
442,282	3817,15
442,545	4063,95
442,809	4172,25
443,072	4347,85
443,335	4629,65
443,598	4850,15
443,861	5079,65
444,124	5006,75
444,388	5375,45
444,651	5559,05
444,914	5666,75
445,177	5916,65
445,44	6000,85
445,703	6243,05
445,966	6556,05
446,229	6806,85
446,492	7139,55
446,755	7371,95
447,018	7456,05
447,281	7743,45
447,544	7945,35
447,807	8238,25
448,07	8652,85
448,333	8778,35
448,596	9071,55
448,859	9500,65
449,122	9845,15
449,385	9745,75
449,648	10291,05
449,911	10412,05
450,174	10845,45
450,437	11001,85
450,7	11145,65
450,963	11204,35
451,226	11686,45
451,489	11870,75
451,752	12485,15
452,015	12345,15
452,277	12327,35
452,54	12683,85
452,803	12819,65
453,066	12884,65
453,329	13147,15
453,592	13347,05
453,855	13090,95
454,117	13444,65
454,38	13614,55
454,643	13580,25
454,906	13424,25
455,169	13227,05
455,431	13265,85
455,694	13257,55
455,957	13188,25
456,22	13592,25
456,482	13068,65
456,745	12936,05
457,008	13421,25
457,271	12950,05
457,533	12798,45
457,796	12831,85
458,059	12558,45
458,321	12158,95
458,584	12084,15
458,847	11988,55
459,109	11459,45
459,372	11728,85
459,635	11420,75
459,897	10977,65
460,16	10923,25
460,423	10774,05
460,685	10378,85
460,948	10345,05
461,21	10137,25
461,473	9861,95
461,735	9456,95
461,998	9382,95
462,261	9324,85
462,523	9111,05
462,786	8884,55
463,048	8680,55
463,311	8552,05
463,573	8393,85
463,836	8138,55
464,098	7894,25
464,361	7654,05
464,623	7531,35
464,886	7664,45
465,148	7532,05
465,411	7483,95
465,673	7539,85
465,936	7357,35
466,198	7266,25
466,46	7111,45
466,723	7033,75
466,985	6923,75
467,248	6855,95
467,51	6998,75
467,772	6721,75
468,035	6653,05
468,297	6708,85
468,56	6548,35
468,822	6538,15
469,084	6499,15
469,347	6357,65
469,609	6386,15
469,871	6454,75
470,133	6508,45
470,396	6284,45
470,658	6202,75
470,92	6159,25
471,183	6307,85
471,445	6150,55
471,707	6125,75
471,969	6070,35
472,232	5972,65
472,494	5992,25
472,756	6182,35
473,018	5748,15
473,281	5930,05
473,543	5877,65
473,805	5726,65
474,067	5791,15
474,329	5630,55
474,591	5686,25
474,854	5687,35
475,116	5490,25
475,378	5664,95
475,64	5297,55
475,902	5228,95
476,164	5336,45
476,426	5251,85
476,688	5179,75
476,951	5038,05
477,213	5047,95
477,475	4912,85
477,737	4953,55
477,999	5075,55
478,261	4741,15
478,523	4721,95
478,785	4751,25
479,047	4701,55
479,309	4625,05
479,571	4554,75
479,833	4481,05
480,095	4442,95
480,357	4443,95
480,619	4480,45
480,881	4268,65
481,143	4233,85
481,405	4201,05
481,667	4203,15
481,929	4189,85
482,191	4124,25
482,452	4099,65
482,714	4094,25
482,976	4029,15
483,238	4251,25
483,5	4013,05
483,762	4002,35
484,024	4070,15
484,286	4005,25
484,547	3985,05
484,809	3907,45
485,071	3963,25
485,333	3943,65
485,595	3896,95
485,857	4090,65
486,118	3824,95
486,38	3866,95
486,642	3898,15
486,904	3884,25
487,165	3888,05
487,427	3866,25
487,689	3899,55
487,951	3885,05
488,212	3861,65
488,474	4050,15
488,736	3773,05
488,998	3838,55
489,259	3845,95
489,521	3829,25
489,783	3863,05
490,044	3838,65
490,306	3870,15
490,568	3813,65
490,829	3834,75
491,091	3971,45
491,353	3783,85
491,614	3834,75
491,876	3854,85
492,137	3842,55
492,399	3868,85
492,661	3848,65
492,922	3871,45
493,184	3847,15
493,445	3883,15
493,707	4058,45
493,968	3811,25
494,23	3902,65
494,491	3913,75
494,753	3894,65
495,014	3947,45
495,276	3962,15
495,537	3974,15
495,799	3998,55
496,06	4020,05
496,322	4238,45
496,583	4018,45
496,845	4084,65
497,106	4110,55
497,368	4133,05
497,629	4192,15
497,89	4194,05
498,152	4247,25
498,413	4313,95
498,675	4287,85
498,936	4544,65
499,197	4324,85
499,459	4431,45
499,72	4468,35
499,981	4518,65
500,243	4583,15
500,504	4599,85
500,765	4674,85
501,027	4697,25
501,288	4776,65
501,549	4979,35
501,811	4789,35
502,072	4900,05
502,333	4947,55
502,594	4975,05
502,856	5092,45
503,117	5106,55
503,378	5165,25
503,639	5221,45
503,901	5337,75
504,162	5526,95
504,423	5345,95
504,684	5456,15
504,945	5570,25
505,207	5616,25
505,468	5688,35
505,729	5707,85
505,99	5817,75
506,251	5873,65
506,512	5931,25
506,774	6217,55
507,035	6005,75
507,296	6105,25
507,557	6194,55
507,818	6224,65
508,079	6343,55
508,34	6391,05
508,601	6481,55
508,862	6511,65
509,123	6598,95
509,384	6829,55
509,645	6642,45
509,906	6765,05
510,167	6827,95
510,428	6925,45
510,689	6992,55
510,95	7016,75
511,211	7123,45
511,472	7117,65
511,733	7208,35
511,994	7460,75
512,255	7264,45
512,516	7385,65
512,777	7470,15
513,038	7531,75
513,299	7654,85
513,56	7678,85
513,821	7754,05
514,082	7791,05
514,343	7852,35
514,603	8135,15
514,864	7871,75
515,125	7998,85
515,386	8082,15
515,647	8167,75
515,908	8205,35
516,169	8277,85
516,429	8362,75
516,69	8379,05
516,951	8415,45
517,212	8673,95
517,473	8432,85
517,733	8535,35
517,994	8653,35
518,255	8646,55
518,516	8729,05
518,776	8775,55
519,037	8851,45
519,298	8924,85
519,559	9010,95
519,819	9211,25
520,08	8998,35
520,341	9126,35
520,601	9188,65
520,862	9249,75
521,123	9267,65
521,383	9323,65
521,644	9389,05
521,905	9385,25
522,165	9414,45
522,426	9729,25
522,686	9423,05
522,947	9587,35
523,208	9656,15
523,468	9680,95
523,729	9722,55
523,989	9773,15
524,25	9776,75
524,51	9833,85
524,771	9876,85
525,032	10137,65
525,292	9889,25
525,553	9959,25
525,813	10067,05
526,074	10143,35
526,334	10121,05
526,595	10176,85
526,855	10211,15
527,116	10242,25
527,376	10235,95
527,636	10477,15
527,897	10266,75
528,157	10334,45
528,418	10382,95
528,678	10402,05
528,939	10422,15
529,199	10468,95
529,459	10556,65
529,72	10583,45
529,98	10560,65
530,24	10742,45
530,501	10514,65
530,761	10538,85
531,022	10619,95
531,282	10585,65
531,542	10645,05
531,803	10645,15
532,063	10635,85
532,323	10646,95
532,583	10740,75
532,844	10900,05
533,104	10640,75
533,364	10742,45
533,624	10737,15
533,885	10771,05
534,145	10788,65
534,405	10768,55
534,665	10765,35
534,926	10759,45
535,186	10782,35
535,446	11040,55
535,706	10758,35
535,966	10813,15
536,227	10805,85
536,487	10815,65
536,747	10814,95
537,007	10788,85
537,267	10855,65
537,527	10916,55
537,787	10897,25
538,048	11072,95
538,308	10839,25
538,568	10867,65
538,828	10919,65
539,088	10898,45
539,348	10973,15
539,608	10960,65
539,868	10940,25
540,128	10970,65
540,388	10887,45
540,648	11116,45
540,908	10847,05
541,168	10885,25
541,428	10944,15
541,688	10887,35
541,948	10946,85
542,208	10928,55
542,468	10929,95
542,728	10904,35
542,988	10937,95
543,248	11078,35
543,508	10896,55
543,768	10921,35
544,028	10987,75
544,288	10941,65
544,548	10992,85
544,807	10961,05
545,067	10919,95
545,327	10969,55
545,587	10893,35
545,847	11146,75
546,107	10849,75
546,367	10879,45
546,626	10945,35
546,886	10955,95
547,146	10937,15
547,406	10935,85
547,666	10931,75
547,925	10931,65
548,185	10896,25
548,445	11109,35
548,705	10829,35
548,965	10923,35
549,224	10967,45
549,484	10903,85
549,744	10885,15
550,003	10910,95
550,263	10878,55
550,523	10855,15
550,783	10859,05
551,042	11023,55
551,302	10791,15
551,562	10829,65
551,821	10808,15
552,081	10826,25
552,341	10914,15
552,6	10883,45
552,86	10820,45
553,119	10803,75
553,379	10751,55
553,639	10998,65
553,898	10729,95
554,158	10767,45
554,417	10790,05
554,677	10770,05
554,936	10801,05
555,196	10764,05
555,456	10780,65
555,715	10740,55
555,975	10750,65
556,234	10959,45
556,494	10687,25
556,753	10695,95
557,013	10741,25
557,272	10707,25
557,532	10768,05
557,791	10699,75
558,051	10720,25
558,31	10689,55
558,569	10719,35
558,829	10877,45
559,088	10617,65
559,348	10675,25
559,607	10712,55
559,866	10631,45
560,126	10677,65
560,385	10640,85
560,645	10680,15
560,904	10625,05
561,163	10584,85
561,423	10786,85
561,682	10519,75
561,941	10579,15
562,201	10570,15
562,46	10622,35
562,719	10484,65
562,979	10508,75
563,238	10547,25
563,497	10548,95
563,756	10535,65
564,016	10778,45
564,275	10492,35
564,534	10539,25
564,793	10542,55
565,053	10528,25
565,312	10565,95
565,571	10542,45
565,83	10498,25
566,089	10482,85
566,349	10437,25
566,608	10645,05
566,867	10367,35
567,126	10367,75
567,385	10387,85
567,644	10396,85
567,903	10369,95
568,163	10351,85
568,422	10267,25
568,681	10300,15
568,94	10288,55
569,199	10452,25
569,458	10190,75
569,717	10225,15
569,976	10275,35
570,235	10221,85
570,494	10235,65
570,753	10235,65
571,012	10245,15
571,271	10128,15
571,53	10159,45
571,789	10371,35
572,048	10066,55
572,307	10152,75
572,566	10139,75
572,825	10092,25
573,084	10135,85
573,343	10107,35
573,602	10057,95
573,861	9976,85
574,12	10002,95
574,379	10203,05
574,638	9892,15
574,897	9863,85
575,156	10011,75
575,414	9905,05
575,673	9888,15
575,932	9882,35
576,191	9844,75
576,45	9866,05
576,709	9832,15
576,968	10007,85
577,226	9704,35
577,485	9764,95
577,744	9788,75
578,003	9825,15
578,262	9723,75
578,52	9701,95
578,779	9686,75
579,038	9617,15
579,297	9600,55
579,555	9754,85
579,814	9537,05
580,073	9509,35
580,332	9507,75
580,59	9512,65
580,849	9451,75
581,108	9482,05
581,366	9421,65
581,625	9367,05
581,884	9365,35
582,142	9522,05
582,401	9235,45
582,66	9325,35
582,918	9297,45
583,177	9276,95
583,436	9190,35
583,694	9204,05
583,953	9187,95
584,211	9178,85
584,47	9171,15
584,728	9323,15
584,987	9002,45
585,246	9062,05
585,504	9029,55
585,763	8964,55
586,021	8996,85
586,28	8943,75
586,538	8905,45
586,797	8891,75
587,055	8828,35
587,314	9075,45
587,572	8761,25
587,831	8774,75
588,089	8734,95
588,348	8768,25
588,606	8673,55
588,864	8634,35
589,123	8665,75
589,381	8641,85
589,64	8593,65
589,898	8791,65
590,157	8440,55
590,415	8481,85
590,673	8486,35
590,932	8459,45
591,19	8397,95
591,448	8404,85
591,707	8337,25
591,965	8316,75
592,223	8280,85
592,482	8469,05
592,74	8127,75
592,998	8137,75
593,257	8190,85
593,515	8143,95
593,773	8073,55
594,031	8039,15
594,29	8049,85
594,548	8022,55
594,806	7994,85
595,064	8162,05
595,323	7822,55
595,581	7876,25
595,839	7932,25
596,097	7867,65
596,355	7804,15
596,613	7774,75
596,872	7729,15
597,13	7709,55
597,388	7667,45
597,646	7830,95
597,904	7506,85
598,162	7561,85
598,42	7570,45
598,679	7478,55
598,937	7506,45
599,195	7465,95
599,453	7463,05
599,711	7389,65
599,969	7394,15
600,227	7540,55
600,485	7230,45
600,743	7270,05
601,001	7259,85
601,259	7207,55
601,517	7201,85
601,775	7146,05
602,033	7103,15
602,291	7083,55
602,549	6984,95
602,807	7222,05
603,065	6911,85
603,323	6942,35
603,581	6922,65
603,839	6910,45
604,097	6885,85
604,355	6800,25
604,613	6823,75
604,871	6740,35
605,128	6745,45
605,386	6895,95
605,644	6595,85
605,902	6608,65
606,16	6618,65
606,418	6587,35
606,676	6539,05
606,933	6528,15
607,191	6512,35
607,449	6471,75
607,707	6453,95
607,965	6612,15
608,223	6298,25
608,48	6286,25
608,738	6308,55
608,996	6271,45
609,254	6225,75
609,511	6201,35
609,769	6200,45
610,027	6145,95
610,285	6091,25
610,542	6291,55
610,8	5967,75
611,058	5997,85
611,315	6009,85
611,573	5976,15
611,831	5935,85
612,088	5875,55
612,346	5877,45
612,604	5842,85
612,861	5815,15
613,119	6001,65
613,376	5707,55
613,634	5744,75
613,892	5752,85
614,149	5693,45
614,407	5694,35
614,664	5624,55
614,922	5631,25
615,18	5569,75
615,437	5588,15
615,695	5691,35
615,952	5441,35
616,21	5459,45
616,467	5482,55
616,725	5429,35
616,982	5417,15
617,24	5424,25
617,497	5401,95
617,755	5407,25
618,012	5335,25
618,27	5506,05
618,527	5173,15
618,784	5196,05
619,042	5165,35
619,299	5136,75
619,557	5137,75
619,814	5096,45
620,071	5088,95
620,329	5061,45
620,586	5023,75
620,844	5212,45
621,101	4912,25
621,358	4939,15
621,616	4941,55
621,873	4912,95
622,13	4864,75
622,388	4830,15
622,645	4823,45
622,902	4812,55
623,159	4764,05
623,417	4962,65
623,674	4633,45
623,931	4682,25
624,188	4679,55
624,446	4640,45
624,703	4647,75
624,96	4613,75
625,217	4552,85
625,475	4550,55
625,732	4519,65
625,989	4688,95
626,246	4381,75
626,503	4390,85
626,761	4423,95
627,018	4369,05
627,275	4363,05
627,532	4320,45
627,789	4323,85
628,046	4292,25
628,303	4261,85
628,56	4425,75
628,818	4116,05
629,075	4175,55
629,332	4143,15
629,589	4116,05
629,846	4147,45
630,103	4052,45
630,36	4063,65
630,617	4023,55
630,874	3993,45
631,131	4174,65
631,388	3893,75
631,645	3915,65
631,902	3931,65
632,159	3849,65
632,416	3875,15
632,673	3822,35
632,93	3809,05
633,187	3749,45
633,444	3740,05
633,701	3911,85
633,958	3650,25
634,215	3630,55
634,471	3665,65
634,728	3607,25
634,985	3615,05
635,242	3596,15
635,499	3587,65
635,756	3541,05
636,013	3492,75
636,27	3649,05
636,526	3393,95
636,783	3419,65
637,04	3405,55
637,297	3413,95
637,554	3353,45
637,81	3344,25
638,067	3315,25
638,324	3297,15
638,581	3270,05
638,838	3426,45
639,094	3138,25
639,351	3168,45
639,608	3215,05
639,864	3164,65
640,121	3172,95
640,378	3103,35
640,635	3077,05
640,891	3044,95
641,148	3039,55
641,405	3191,55
641,661	2927,35
641,918	2934,65
642,175	2956,05
642,431	2899,35
642,688	2916,75
642,944	2863,65
643,201	2870,85
643,458	2831,35
643,714	2819,95
643,971	2966,85
644,227	2698,15
644,484	2744,35
644,741	2740,65
644,997	2714,65
645,254	2679,05
645,51	2650,25
645,767	2652,45
646,023	2614,95
646,28	2621,05
646,536	2755,45
646,793	2488,05
647,049	2513,45
647,306	2520,55
647,562	2488,55
647,819	2478,15
648,075	2450,05
648,331	2433,75
648,588	2386,05
648,844	2386,45
649,101	2561,45
649,357	2271,85
649,613	2299,65
649,87	2325,15
650,126	2285,15
650,383	2290,55
650,639	2250,95
650,895	2233,75
651,152	2206,15
651,408	2170,35
651,664	2330,95
651,921	2071,25
652,177	2110,35
652,433	2104,25
652,689	2069,35
652,946	2047,65
653,202	2036,35
653,458	2029,55
653,715	2006,75
653,971	1981,45
654,227	2153,15
654,483	1884,65
654,739	1914,15
654,996	1921,95
655,252	1879,35
655,508	1882,35
655,764	1859,05
656,02	1869,85
656,277	1807,35
656,533	1804,65
656,789	1960,45
657,045	1688,35
657,301	1710,65
657,557	1752,25
657,813	1695,05
658,07	1696,45
658,326	1642,75
658,582	1655,45
658,838	1624,65
659,094	1635,45
659,35	1803,15
659,606	1541,95
659,862	1550,55
660,118	1559,05
660,374	1525,95
660,63	1525,55
660,886	1492,05
661,142	1488,05
661,398	1453,15
661,654	1442,35
661,91	1616,75
662,166	1367,15
662,422	1369,45
662,678	1405,55
662,934	1367,95
663,19	1378,35
663,446	1344,25
663,702	1346,65
663,957	1284,35
664,213	1299,15
664,469	1454,85
664,725	1222,45
664,981	1241,45
665,237	1251,25
665,493	1234,45
665,749	1232,45
666,004	1195,75
666,26	1204,45
666,516	1150,95
666,772	1157,45
667,028	1328,85
667,283	1060,65
667,539	1100,25
667,795	1118,25
668,051	1078,35
668,307	1074,05
668,562	1035,55
668,818	1048,75
669,074	1017,45
669,329	1009,65
669,585	1174,75
669,841	920,95
670,097	942,55
670,352	986,95
670,608	945,05
670,864	961,45
671,119	915,15
671,375	936,15
671,631	892,45
671,886	888,55
672,142	1051,55
672,397	800,75
672,653	832,15
672,909	868,65
673,164	812,15
673,42	837,35
673,675	794,55
673,931	824,35
674,186	763,55
674,442	780,95
674,698	941,05
674,953	688,75
675,209	712,35
675,464	747,85
675,72	708,05
675,975	713,15
676,231	687,85
676,486	697,75
676,742	663,95
676,997	683,55
677,252	828,05
677,508	583,85
677,763	601,15
678,019	635,25
678,274	588,05
678,53	610,25
678,785	572,25
679,04	582,75
679,296	554,75
679,551	564,15
679,806	721,45
680,062	478,95
680,317	497,75
680,572	529,25
680,828	489,05
681,083	521,85
681,338	476,45
681,594	500,35
681,849	455,55
682,104	469,85
682,36	628,45
682,615	391,65
682,87	418,15
683,125	445,45
683,381	415,45
683,636	423,95
683,891	382,45
684,146	404,65
684,401	381,95
684,657	379,05
684,912	546,35
685,167	300,55
685,422	339,05
685,677	360,85
685,932	335,75
686,188	349,95
686,443	316,55
686,698	331,55
686,953	304,55
687,208	314,15
687,463	470,65
687,718	235,95
687,973	276,85
688,228	301,85
688,483	275,15
688,739	290,95
688,994	252,95
689,249	270,85
689,504	253,25
689,759	244,45
690,014	411,45
690,269	172,65
690,524	214,45
690,779	228,75
691,034	204,45
691,289	221,15
691,544	201,75
691,798	214,65
692,053	191,85
692,308	192,55
692,563	360,95
692,818	121,95
693,073	165,65
693,328	180,85
693,583	164,15
693,838	171,15
694,093	148,65
694,347	163,75
694,602	147,35
694,857	146,85
695,112	318,15
695,367	75,25
695,622	123,15
695,876	138,95
696,131	128,05
696,386	132,15
696,641	125,25
696,896	124,25
697,15	111,85
697,405	106,65
697,66	289,35
697,915	37,95
698,169	95,65
698,424	106,95
698,679	96,15
698,933	101,25
699,188	92,65
699,443	95,75
699,698	90,65
699,952	86,25
700,207	267,55
700,461	11,35
700,716	64,35
700,971	76,55
701,225	70,05
701,48	73,65
701,735	66,15
701,989	70,35
702,244	65,15
702,498	58,15
702,753	241,45
703,007	-3,95
703,262	42,85
703,517	54,95
703,771	54,45
704,026	55,65
704,28	49,05
704,535	56,15
704,789	45,95
705,044	37,75
705,298	227,85
705,553	-15,25
705,807	31,45
706,062	42,15
706,316	46,85
706,57	42,05
706,825	37,85
707,079	47,05
707,334	33,95
707,588	27,15
707,842	207,45
708,097	-30,25
708,351	19,35
708,606	34,95
708,86	32,55
709,114	33,85
709,369	26,95
709,623	32,85
709,877	26,65
710,132	22,35
710,386	202,15
710,64	-38,35
710,895	14,45
711,149	27,35
711,403	22,45
711,657	25,55
711,912	21,25
712,166	22,45
712,42	17,65
712,674	11,15
712,928	197,15
713,183	-51,65
713,437	8,85
713,691	18,75
713,945	14,65
714,199	14,95
714,454	20,45
714,708	17,15
714,962	15,25
715,216	7,85
715,47	186,05
715,724	-47,75
715,978	6,75
716,233	13,75
716,487	12,25
716,741	14,15
716,995	12,95
717,249	15,05
717,503	15,75
717,757	8,75
718,011	9,35
718,265	11,85
718,519	12,15
718,773	12,65
719,027	11,35
719,281	12,55
719,535	8,15
719,789	10,05
720,043	9,95
720,297	8,25
720,551	6,65
720,805	10,25
721,059	6,35
721,313	6,05
721,567	7,45
721,821	8,35
722,074	7,85
722,328	7,55
722,582	2,55
722,836	9,75
723,09	7,15
723,344	7,05
723,598	5,15
723,851	2,35
724,105	3,35
724,359	7,25
724,613	5,95
724,867	6,45
725,121	2,55
725,374	3,05
725,628	6,95
725,882	5,05
726,136	-2,45
726,389	2,95
726,643	-0,75
726,897	-0,45
727,151	0,95
727,404	-0,05
727,658	-0,15
727,912	5,05
728,165	-1,75
728,419	2,85
728,673	0,85
728,926	6,05
729,18	0,05
729,434	-0,25
729,687	2,55
729,941	0,45
730,195	0,45
730,448	4,15
730,702	-0,55
730,955	1,35
731,209	4,95
731,462	3,25
731,716	0,35
731,97	-2,35
732,223	0,85
732,477	2,15
732,73	1,65
732,984	-0,25
733,237	3,65
733,491	-0,25
733,744	-1,95
733,998	0,25
734,251	-1,25
734,505	-1,05
734,758	-0,55
735,012	-2,45
735,265	1,05
735,518	1,85
735,772	2,45
736,025	-2,65
736,279	-2,75
736,532	-1,75
736,785	-1,45
737,039	-2,75
737,292	-2,85
737,546	-1,85
737,799	0,55
738,052	4,05
738,306	-1,95
738,559	-1,75
738,812	-3,35
739,066	-3,55
739,319	-3,45
739,572	-2,15
739,825	-1,35
740,079	-1,35
740,332	2,05
740,585	-0,95
740,838	-1,05
741,092	-0,35
741,345	-4,05
741,598	0,75
741,851	-1,85
742,104	0,75
742,358	0,05
742,611	-3,55
742,864	-5,95
743,117	0,15
743,37	3,05
743,623	1,35
743,877	-0,45
744,13	0,25
744,383	-1,75
744,636	-0,45
744,889	-1,65
745,142	-4,05
745,395	-5,15
745,648	-0,55
745,901	-0,55
746,154	-2,85
746,408	0,05
746,661	-7,55
746,914	-2,95
747,167	-1,65
747,42	-4,15
747,673	-3,25
747,926	-3,85
748,179	-1,65
748,432	0,85
748,685	-1,65
748,938	-3,35
749,19	-5,65
749,443	-4,95
749,696	-3,35
749,949	-3,85
750,202	-1,95
750,455	-4,45
750,708	-1,15
750,961	-7,15
751,214	-3,65
751,467	-3,05
751,719	-2,75
751,972	-3,85
752,225	-0,85
752,478	-3,35
752,731	-3,55
752,984	-5,85
753,236	-2,45
753,489	-3,95
753,742	-3,85
753,995	-5,95
754,248	-6,45
754,5	-0,25
754,753	-4,35
755,006	-3,55
755,259	-4,75
755,511	-3,85
755,764	-3,65
756,017	-3,05
756,269	-2,85
756,522	-4,15
756,775	-3,45
757,027	-7,25
757,28	-7,05
757,533	-4,35
757,785	-4,45
758,038	-3,65
758,291	-3,55
758,543	-8,05
758,796	-3,25
759,049	-5,35
759,301	-5,25
759,554	-9,55
759,806	-7,65
760,059	-4,55
760,311	-3,05
760,564	-6,85
760,817	-4,95
761,069	-7,55
761,322	-5,15
761,574	-9,65
761,827	-6,05
762,079	-4,05
762,332	-1,05
762,584	-4,25
762,837	-5,85
763,089	-4,65
763,341	-6,85
763,594	-3,05
763,846	-7,25
764,099	-4,35
764,351	-1,25
764,604	-7,05
764,856	-5,65
765,108	-4,75
765,361	-3,25
765,613	-2,35
765,865	-6,45
766,118	-10,05
766,37	-6,65
766,623	-7,55
766,875	-10,05
767,127	-3,25
767,379	-4,15
767,632	-6,15
767,884	-2,35
768,136	-4,25
768,389	-2,65
768,641	-4,85
768,893	-7,25
769,145	-7,55
769,398	-2,65
769,65	-4,35
769,902	-2,95
770,154	-4,85
770,406	-7,25
770,659	-3,35
770,911	-2,15
771,163	-6,35
771,415	-5,45
771,667	-7,15
771,919	-2,35
772,172	-3,05
772,424	-6,15
772,676	-4,65
772,928	-2,95
773,18	-1,75
773,432	-5,95
773,684	-7,25
773,936	-5,95
774,188	-4,35
774,44	1,25
774,693	-4,75
774,945	-8,25
775,197	-8,25
775,449	-6,25
775,701	-6,25
775,953	-3,85
776,205	-4,55
776,457	-2,65
776,709	-4,05
776,961	-8,25
777,213	-6,35
777,464	-3,85
777,716	-4,65
777,968	-4,95
778,22	-0,75
778,472	-0,05
778,724	-4,25
778,976	-4,85
779,228	-8,35
779,48	-6,45
779,732	-3,35
779,984	-6,85
780,235	-6,95
780,487	-3,15
780,739	-9,15
780,991	-3,55
781,243	-5,35
781,494	-6,95
781,746	-3,55
781,998	-4,95
782,25	-2,65
782,502	-6,25
782,753	-5,65
783,005	-4,95
783,257	-5,15
783,509	-4,05
783,76	-6,55
784,012	-7,65
784,264	-5,75
784,515	-4,35
784,767	-2,45
785,019	-0,05
785,271	-7,05
785,522	-0,35
785,774	-5,05
786,026	-6,35
786,277	-6,55
786,529	-1,75
786,78	-4,35
787,032	-4,95
787,284	-4,75
787,535	-1,05
787,787	-4,05
788,038	-4,65
788,29	-3,45
788,541	-3,05
788,793	-4,95
789,045	-3,35
789,296	-2,85
789,548	-2,85
789,799	-5,55
790,051	-6,75
790,302	-4,15
790,554	-1,25
790,805	-3,55
791,057	-5,85
791,308	-2,35
791,559	-1,85
791,811	-7,45
792,062	-2,55
792,314	-3,85
792,565	-0,95
792,817	-1,05
793,068	-1,95
793,319	-0,85
793,571	-5,45
793,822	-0,95
794,073	-1,45
794,325	-3,95
794,576	-5,55
794,827	-2,05
795,079	-1,15
795,33	-1,45
795,581	-7,65
795,833	-4,35
796,084	-4,95
796,335	-3,75
796,587	-2,65
796,838	-1,25
797,089	-2,75
797,34	-7,45
797,592	-2,65
797,843	-2,85
798,094	-1,95
798,345	-8,45
798,596	0,35
798,848	-1,15
799,099	-1,35
799,35	-3,65
799,601	-4,75
799,852	-2,05
800,103	-2,75
800,355	-6,75
800,606	-3,05
800,857	-0,45
801,108	-2,15
801,359	-2,65
801,61	-4,55
801,861	-3,25
802,112	-5,35
802,363	-2,05
802,614	-4,15
802,865	-1,75
803,116	-6,15
803,367	-6,65
803,618	-4,75
803,869	-3,55
804,12	-2,05
804,371	-4,75
804,622	-1,05
804,873	-3,45
805,124	-3,65
805,375	-2,55
805,626	-1,35
805,877	-3,15
806,128	-0,25
806,379	-1,15
806,63	-3,05
806,881	-2,25
807,132	-2,25
807,383	-3,75
807,634	-3,35
807,884	-4,15
808,135	1,25
808,386	-3,75
808,637	-1,55
808,888	-1,05
809,139	-3,75
809,389	-4,85
809,64	-3,95
809,891	-3,85
810,142	-4,45
810,393	-1,65
810,643	-0,85
810,894	-5,75
811,145	-3,75
811,396	-0,15
811,646	-3,35
811,897	-2,45
812,148	-0,85
812,398	3,15
812,649	-2,85
812,9	-3,75
813,151	-1,65
813,401	-5,75
813,652	-3,75
813,902	-0,65
814,153	-0,85
814,404	-0,15
814,654	0,65
814,905	2,95
815,156	0,35
815,406	-1,05
815,657	-2,55
815,907	-2,75
816,158	-3,35
816,408	-0,35
816,659	-0,85
816,91	-3,05
817,16	-4,25
817,411	2,85
817,661	-2,85
817,912	1,75
818,162	-1,45
818,413	-2,35
818,663	0,55
818,914	-3,75
819,164	-4,55
819,414	0,85
819,665	-1,45
819,915	-2,95
820,166	-1,05
820,416	-6,05
820,667	1,25
820,917	-2,35
821,167	0,05
821,418	0,65
821,668	-1,95
821,918	0,05
822,169	-3,55
822,419	-0,15
822,67	-4,15
822,92	-3,35
823,17	0,55
823,42	0,15
823,671	-0,85
823,921	-3,15
824,171	1,55
824,422	-3,85
824,672	-2,25
824,922	-2,25
825,172	0,65
825,423	-2,25
825,673	-3,75
825,923	-0,15
826,173	-0,95
826,423	2,15
826,674	0,85
826,924	-0,65
827,174	0,45
827,424	0,05
827,674	1,65
827,924	0,45
828,175	0,55
828,425	-2,35
828,675	-4,45
828,925	-2,65
829,175	-0,25
829,425	-2,25
829,675	2,05
829,925	-2,95
830,175	-0,95
830,425	0,95
830,675	0,65
830,925	4,55
831,175	-3,05
831,425	-3,95
831,676	-0,25
831,926	-2,05
832,175	-3,45
832,425	-1,05
832,675	-0,25
832,925	-1,35
833,175	-0,15
833,425	-0,35
833,675	-0,85
833,925	-1,25
834,175	-1,25
834,425	-2,25
834,675	2,45
834,925	-0,65
835,175	0,15
835,425	2,65
835,674	-2,15
835,924	2,45
836,174	-2,05
836,424	-2,35
836,674	0,35
836,924	-2,35
837,173	1,85
837,423	0,15
837,673	0,05
837,923	-0,65
838,173	2,05
838,422	-1,25
838,672	-0,95
838,922	2,85
839,172	-0,75
839,421	0,75
839,671	1,65
839,921	-2,25
840,17	-0,55
840,42	-0,75
840,67	3,15
840,919	1,85
841,169	1,35
841,419	3,55
841,668	0,85
841,918	1,65
842,168	0,05
842,417	2,95
842,667	0,85
842,916	3,95
843,166	0,15
843,416	1,05
843,665	2,85
843,915	2,55
844,164	0,35
844,414	3,65
844,663	1,05
844,913	-1,35
845,162	2,05
845,412	0,45
845,662	-0,15
845,911	-1,45
846,16	0,05
846,41	-0,95
846,659	-0,25
846,909	0,65
847,158	-0,05
847,408	0,45
847,657	1,25
847,907	-1,35
848,156	3,05
848,405	1,55
848,655	0,75
848,904	-1,35
849,154	-1,05
849,403	0,15
849,652	0,55
849,902	3,45
850,151	0,85
850,4	1,35
850,65	1,45
850,899	-2,15
851,148	1,65
851,398	-0,85
851,647	1,05
851,896	1,65
852,145	2,45
852,395	1,95
852,644	-0,15
852,893	-2,75
853,142	2,45
853,392	3,25
853,641	3,45
853,89	1,75
854,139	-0,45
854,388	-0,65
854,637	3,05
854,887	5,25
855,136	1,95
855,385	4,65
855,634	0,45
855,883	-1,85
856,132	1,95
856,381	0,25
856,631	0,25
856,88	1,55
857,129	-1,05
857,378	-1,65
857,627	-1,35
857,876	-1,35
858,125	1,85
858,374	2,45
858,623	3,55
858,872	-0,85
859,121	1,15
859,37	0,55
859,619	1,75
859,868	0,25
860,117	2,45
860,366	-0,65
860,615	0,25
860,864	-1,15
861,113	-0,05
861,362	-0,35
861,611	-1,35
861,86	-1,75
862,108	3,55
862,357	2,55
862,606	-1,25
862,855	1,05
863,104	3,95
863,353	1,45
863,602	0,35
863,851	-1,55
864,099	1,45
864,348	0,25
864,597	1,15
864,846	2,35
865,095	-0,85
865,343	-0,25
865,592	2,65
865,841	-2,05
866,09	-1,35
866,338	-1,95
866,587	-1,65
866,836	1,55
867,085	0,45
867,333	1,75
867,582	2,35
867,831	-0,05
868,079	-3,65
868,328	0,95
868,577	0,65
868,825	1,65
869,074	-2,65
869,323	-3,25
869,571	-2,75
869,82	-0,75
870,068	1,85
870,317	1,35
870,566	1,15
870,814	2,35
871,063	0,05
871,311	-0,45
871,56	-1,35
871,808	2,05
872,057	-1,95
872,306	0,35
872,554	4,55
872,803	2,55
873,051	1,65
873,3	-5,05
873,548	-3,15
873,797	-1,45
874,045	3,05
874,293	0,55
874,542	-0,55
874,79	3,55
875,039	-0,55
875,287	-4,15
875,536	-0,75
875,784	-2,45
876,032	-1,15
876,281	-2,05
876,529	2,35
876,777	1,55
877,026	2,65
877,274	-1,55
877,523	-0,65
877,771	3,15
878,019	-1,85
878,267	1,45
878,516	0,25
878,764	-0,45
879,012	0,55
879,261	-4,45
879,509	0,75
879,757	-1,95
880,005	4,75
880,254	-1,55
880,502	5,45
880,75	-2,55
880,998	3,35
881,246	2,15
881,495	-0,55
881,743	-2,45
881,991	3,35
882,239	-3,05
882,487	0,65
882,735	0,85
882,984	0,85
883,232	-0,05
883,48	-0,65
883,728	-0,25
883,976	-0,25
884,224	-1,45
884,472	1,85
884,72	-1,75
884,968	1,95
885,216	3,25
885,464	0,05
885,712	-1,95
885,96	-1,05
886,208	-1,05
886,457	-1,05
886,704	-1,95
886,952	-2,45
887,2	1,35
887,448	1,75
887,696	-0,35
887,944	-0,05
888,192	1,35
888,44	2,05
888,688	-1,45
888,936	-2,65
889,184	-1,95
889,432	-1,45
889,68	-1,55
889,928	0,15
890,175	2,85
890,423	-1,65
890,671	-0,15
890,919	-1,85
891,167	0,65
891,415	0,75
891,663	-1,65
891,91	-0,95
892,158	-4,45
892,406	-0,75
892,654	-2,35
892,901	3,05
893,149	0,05
893,397	3,05
893,645	-0,15
893,892	-0,15
894,14	-3,05
894,388	-2,45
894,636	-0,45
894,883	1,45
895,131	-0,85
895,379	-0,15
895,626	-3,15
895,874	2,65
896,122	0,25
896,369	-1,85
896,617	-6,25
896,864	-0,25
897,112	-2,45
897,36	-3,35
897,607	2,65
897,855	3,25
898,102	-0,05
898,35	2,75
898,598	-0,75
898,845	1,35
899,093	-0,75
899,34	-1,45
899,588	-1,55
899,835	-2,15
900,083	-0,55
900,33	-1,75
900,578	0,95
900,825	-1,35
901,073	-4,15
901,32	-0,75
901,568	-1,75
901,815	1,35
902,062	-0,55
902,31	-3,45
902,557	-3,95
902,805	-1,85
903,052	-2,55
903,299	-0,65
903,547	-2,75
903,794	-1,25
904,042	-3,95
904,289	-2,15
904,536	0,55
904,784	0,35
905,031	-2,85
905,278	-2,25
905,525	-1,85
905,773	-2,15
906,02	-4,35
906,267	-2,05
906,515	-1,15
906,762	-2,05
907,009	-2,55
907,256	1,05
907,504	-0,85
907,751	0,05
907,998	3,15
908,245	-1,05
908,492	-2,15
908,74	-2,05
908,987	-1,75
909,234	-1,45
909,481	-2,35
909,728	-3,45
909,975	-0,35
910,222	-1,45
910,47	-4,45
910,717	-3,85
910,964	-2,65
911,211	-3,35
911,458	-3,35
911,705	-3,05
911,952	-4,95
912,199	-2,95
912,446	-6,05
912,693	-4,85
912,94	-4,35
913,187	-1,25
913,434	-4,75
913,681	-3,75
913,928	-4,15
914,175	-2,95
914,422	-1,05
914,669	-2,35
914,916	-2,95
915,163	0,25
915,41	-3,05
915,657	-0,75
915,904	-0,75
916,151	-0,25
916,398	-4,15
916,644	-1,95
916,891	0,25
917,138	-0,25
917,385	-0,65
917,632	-3,05
917,879	-1,55
918,126	-3,25
918,372	-1,55
918,619	-1,75
918,866	-1,05
919,113	-1,85
919,36	-6,75
919,606	-6,35
919,853	-4,55
920,1	-4,65
920,347	-8,15
920,593	-0,85
920,84	0,15
921,087	-3,25
921,334	-2,35
921,58	0,35
921,827	-2,35
922,074	-4,25
922,32	-5,15
922,567	-3,45
922,814	-0,25
923,06	-1,95
923,307	0,15
923,554	-1,35
923,8	-0,35
924,047	-0,25
924,293	-2,15
924,54	-1,95
924,787	-4,95
925,033	1,35
925,28	-2,45
925,526	-2,65
925,773	-3,05
926,019	-3,85
926,266	-5,95
926,512	-4,85
926,759	-3,05
927,005	1,55
927,252	-6,75
927,498	-3,95
927,745	-0,55
927,991	0,55
928,238	-5,05
928,484	-0,15
928,731	-4,65
928,977	-4,85
929,223	-6,45
929,47	-1,45
929,716	-3,85
929,963	-2,35
930,209	-0,05
930,455	-3,95
930,702	-5,75
930,948	-2,25
931,194	-0,45
931,441	-0,55
931,687	-4,65
931,933	-5,25
932,18	-3,45
932,426	0,35
932,672	-2,45
932,919	0,05
933,165	-2,05
933,411	-5,25
933,657	-4,15
933,904	-3,95
934,15	-1,25
934,396	-2,35
934,642	-6,35
934,889	-6,05
935,135	-3,45
935,381	-2,85
935,627	-3,85
935,873	-6,55
936,119	-4,45
936,366	-4,45
936,612	-1,55
936,858	-3,35
937,104	-1,45
937,35	-3,35
937,596	-4,15
937,842	-2,35
938,088	-2,95
938,334	-2,15
938,58	-6,05
938,827	-4,95
939,073	-5,65
939,319	-6,25
939,565	-3,95
939,811	-3,25
940,057	-1,95
940,303	-2,85
940,549	-1,55
940,795	-4,55
941,041	-1,35
941,287	-0,75
941,533	-5,85
941,778	-6,45
942,024	-6,75
942,27	-3,25
942,516	-3,65
942,762	0,05
943,008	-3,75
943,254	0,05
943,5	-4,65
943,746	-1,45
943,992	-4,95
944,237	-5,65
944,483	-5,55
944,729	-5,25
944,975	-2,45
945,221	-1,55
945,467	1,15
945,712	-1,85
945,958	-4,15
946,204	-5,85
946,45	-4,75
946,695	-6,15
946,941	-4,65
947,187	-3,15
947,433	-4,75
947,678	-6,05
947,924	-6,05
948,17	-3,85
948,415	-1,35
948,661	-3,25
948,907	-6,75
949,153	-3,65
949,398	-1,65
949,644	-4,25
949,889	-2,85
950,135	-2,25
950,381	-7,25
950,626	-0,65
950,872	-3,05
951,118	-4,85
951,363	-4,35
951,609	-6,05
951,854	-7,35
952,1	-4,55
952,345	-0,65
952,591	-1,85
952,836	-3,25
953,082	-3,35
953,327	-5,35
953,573	-8,55
953,818	-9,25
954,064	-6,15
954,309	-3,65
954,555	-4,35
954,8	-4,25
955,046	-8,85
955,291	-3,75
955,537	-2,75
955,782	-4,05
956,027	-5,55
956,273	-3,35
956,518	-2,55
956,764	-7,55
957,009	-5,25
957,254	-2,45
957,5	-1,75
957,745	-2,05
957,99	-0,15
958,236	0,15
958,481	-3,65
958,726	-8,25
958,972	-5,85
959,217	-4,55
959,462	-4,75
959,707	-4,25
959,953	-2,35
960,198	-4,95
960,443	-6,55
960,688	-1,95
960,934	-4,05
961,179	-4,85
961,424	-7,25
961,669	-1,45
961,914	-6,35
962,16	-6,15
962,405	-6,35
962,65	-7,05
962,895	-7,75
963,14	-3,05
963,385	-6,45
963,63	-7,15
963,876	-7,05
964,121	-8,75
964,366	-6,75
964,611	-6,25
964,856	-0,95
965,101	-4,85
965,346	-3,65
965,591	-3,85
965,836	-4,65
966,081	-8,25
966,326	-5,95
966,571	-7,35
966,816	-2,65
967,061	-4,75
967,306	-3,35
967,551	-6,35
967,796	-2,95
968,041	-4,85
968,286	-4,55
968,531	-9,35
968,776	-5,95
969,021	-6,55
969,266	-4,45
969,511	-5,25
969,755	-0,35
970	-5,35
970,245	0,15
970,49	-1,85
970,735	-1,95
970,98	-4,75
971,225	-3,85
971,469	-2,25
971,714	-3,95
971,959	-7,75
972,204	-1,65
972,449	-3,75
972,693	-4,95
972,938	-6,45
973,183	-1,85
973,428	-1,35
973,672	-2,15
973,917	-4,85
974,162	-2,05
974,407	-4,85
974,651	-5,45
974,896	-4,25
975,141	-4,05
975,385	-7,55
975,63	-5,45
975,875	-5,75
976,119	-5,35
976,364	-6,75
976,608	-2,95
976,853	-6,95
977,098	-4,65
977,342	-5,05
977,587	-1,55
977,831	-6,15
978,076	-4,35
978,321	-5,35
978,565	-3,15
978,81	-4,15
979,054	-0,55
979,299	-5,75
979,543	-3,55
979,788	-6,25
980,032	-7,65
980,277	-3,25
980,521	-3,25
980,766	-3,45
981,01	-2,35
981,255	-5,55
981,499	-0,55
981,743	-5,15
981,988	-6,95
982,232	-6,05
982,477	-2,95
982,721	-4,25
982,965	-7,45
983,21	-7,25
983,454	-3,85
983,699	-9,95
983,943	-5,05
984,187	0,65
984,432	-4,95
984,676	-3,95
984,92	-4,25
985,165	-4,15
985,409	-4,95
985,653	-6,35
985,897	-5,75
986,142	-6,15
986,386	-4,15
986,63	-3,85
986,874	-2,35
987,119	-0,65
987,363	-2,95
987,607	-4,45
987,851	-4,35
988,095	-3,55
988,34	-2,05
988,584	-2,35
988,828	-1,35
989,072	-4,05
989,316	-0,65
989,56	-3,85
989,804	-3,05
990,049	-7,75
990,293	-9,75
990,537	-3,05
990,781	-8,05
991,025	-5,35
991,269	-3,35
991,513	-0,15
991,757	-6,35
992,001	-8,75
992,245	-4,15
992,489	-5,65
992,733	-2,75
992,977	-0,25
993,221	-0,95
993,465	-5,85
993,709	-7,65
993,953	-3,15
994,197	-3,95
994,441	-8,35
994,685	-7,85
994,929	-4,95
995,173	-4,35
995,417	-3,65
995,661	-2,45
995,904	-4,05
996,148	-2,15
996,392	-2,75
996,636	-3,15
996,88	-2,35
997,124	-1,75
997,368	-4,85
997,611	-1,85
997,855	-1,85
998,099	-5,85
998,343	2,95
998,587	-3,85
998,83	-3,35
999,074	-1,45
999,318	0,05
999,562	-2,45
999,805	-1,85
1000,049	-1,35
1000,293	-4,65
1000,537	-3,15
1000,78	-2,95
1001,024	-3,35
1001,268	-6,35
1001,511	-3,85
1001,755	-2,75
1001,999	-4,85
1002,242	-0,85
1002,486	-1,65
1002,73	-5,55
1002,973	-3,15
1003,217	-4,75
1003,46	-4,15
1003,704	-1,05
1003,948	0,15
1004,191	-6,65
1004,435	-4,95
1004,678	-6,05
1004,922	-3,05
1005,165	-1,65
1005,409	-1,55
1005,652	-4,85
1005,896	-6,75
1006,139	-6,25
1006,383	-4,55
1006,626	-3,15
1006,87	-0,35
1007,113	-0,55
1007,357	-5,45
1007,6	-4,55
1007,844	-1,25
1008,087	-0,95
1008,33	-5,25
1008,574	-3,15
1008,817	-4,15
1009,061	-3,25
1009,304	-4,45
1009,547	-0,35
1009,791	-1,65
1010,034	-3,25
1010,277	-2,65
1010,521	-3,65
1010,764	-4,25
1011,007	-5,85
1011,251	-0,95
1011,494	-2,35
1011,737	0,35
1011,98	-1,25
1012,224	-0,85
1012,467	-2,55
1012,71	-7,05
1012,953	-1,65
1013,197	-0,65
1013,44	-3,05
1013,683	-1,55
1013,926	-0,75
1014,169	-6,45
1014,413	-2,65
1014,656	-3,25
1014,899	-2,15
1015,142	0,45
1015,385	-0,25
1015,628	-0,55
1015,871	-2,35
1016,115	-1,35
1016,358	-3,75
1016,601	-0,55
1016,844	-1,15
1017,087	0,95
1017,33	-4,65
1017,573	0,45
1017,816	-0,55
1018,059	-3,75
1018,302	-5,15
1018,545	-1,25
1018,788	-4,45
1019,031	-3,85
1019,274	-0,65
1019,517	-4,05
1019,76	-2,55
1020,003	-2,75
1020,246	-5,15
1020,489	-2,75
1020,732	-3,95
1020,975	-1,55
1021,218	-3,45
1021,461	2,15
1021,703	-2,15
1021,946	-2,15
1022,189	-4,15
1022,432	-2,35
1022,675	-0,75
1022,918	-4,65
1023,161	-3,35
1023,403	-4,45
1023,646	-3,85
1023,889	-2,25
1024,132	1,85
1024,375	-0,25
1024,617	-2,75
1024,86	-4,15
1025,103	0,15
1025,346	-1,45
1025,588	-2,65
1025,831	-0,55
1026,074	-0,65
1026,317	-0,35
1026,559	-3,85
1026,802	-0,85
1027,045	-0,15
1027,287	-1,25
1027,53	0,65
1027,773	1,75
1028,015	-5,35
1028,258	-1,35
1028,501	-1,25
1028,743	-1,35
1028,986	-3,75
1029,228	-2,45
1029,471	-1,25
1029,714	0,25
1029,956	-0,35
1030,199	-4,15
1030,441	-3,35
1030,684	-5,15
1030,926	-1,25
1031,169	-1,45
1031,411	-2,65
1031,654	-4,55
1031,896	0,85
1032,139	1,85
1032,381	0,75
1032,624	1,65
1032,866	-3,55
1033,109	0,55
1033,351	3,15
1033,594	-0,65
1033,836	-0,05
1034,079	-1,65
1034,321	-0,05
1034,563	-2,05
1034,806	-0,55
1035,048	-0,25
1035,29	0,45
1035,533	-3,15
1035,775	-3,15
1036,018	-1,05
1036,26	1,35
1036,502	-3,65
1036,744	0,65
1036,987	2,05
1037,229	-1,85
1037,471	-0,35
1037,714	-4,45
1037,956	-4,65
1038,198	-2,75
1038,44	-1,05
1038,683	-1,95
1038,925	-1,65
1039,167	-3,05
1039,409	-3,85
1039,651	-3,25
1039,894	-1,45
1040,136	-4,05
1040,378	-4,15
1040,62	-4,75
1040,862	-3,65
1041,104	-4,85
1041,347	-0,15
1041,589	-2,65
1041,831	-0,45
1042,073	-3,85
1042,315	-3,35
1042,557	-0,55
1042,799	-0,75
1043,041	-0,15
1043,283	1,15
1043,525	-2,45
1043,767	-1,65
1044,009	-3,35
1044,251	-0,05
1044,493	-1,55
1044,735	2,35
1044,977	-1,55
1045,219	-3,05
1045,461	1,35
1045,703	2,45
1045,945	3,75
1046,187	-0,35
1046,429	-1,65
1046,671	-3,65
1046,913	-2,85
1047,155	-1,05
1047,397	-1,05
1047,639	-4,25
1047,881	1,05
1048,122	-3,75
1048,364	-2,05
1048,606	1,45
1048,848	-4,35
1049,09	-2,65
1049,332	3,35
1049,573	1,35
1049,815	-1,75
1050,057	1,65
1050,299	0,45
1050,541	0,95
1050,782	1,25
1051,024	-2,35
1051,266	-0,55
1051,508	0,25
1051,749	0,45
1051,991	0,25
1052,233	-1,65
1052,474	0,25
1052,716	2,25
1052,958	-2,95
1053,199	0,85
1053,441	-4,75
1053,683	1,75
1053,924	-2,75
1054,166	-0,95
1054,408	0,95
1054,649	-1,85
1054,891	0,05
1055,132	-1,45
1055,374	-1,15
1055,616	-1,35
1055,857	0,25
1056,099	-2,25
1056,34	1,35
1056,582	-1,05
1056,823	-1,75
1057,065	-2,75
1057,306	-1,75
1057,548	-3,35
1057,789	0,45
1058,031	-1,05
1058,272	1,45
1058,514	-0,25
1058,755	0,05
1058,997	-6,65
1059,238	-1,25
1059,479	-0,45
1059,721	-1,45
1059,962	-1,35
1060,204	-1,35
1060,445	-4,25
1060,686	-1,25
1060,928	-0,25
1061,169	3,45
1061,41	-1,45
1061,652	-2,45
1061,893	-0,05
1062,134	1,25
1062,376	-2,15
1062,617	-2,65
1062,858	-2,25
1063,1	-5,65
1063,341	-1,05
1063,582	-2,65
1063,823	-0,05
1064,065	-0,35
1064,306	0,95
1064,547	2,85
1064,788	-2,35
1065,029	-2,75
1065,271	-1,25
1065,512	1,65
1065,753	0,55
1065,994	0,05
1066,235	-1,55
1066,476	-1,55
1066,718	-1,05
1066,959	2,45
1067,2	-1,65
1067,441	-0,45
1067,682	1,95
1067,923	-2,95
1068,164	-1,85
1068,405	-1,15
1068,646	-2,85
1068,887	-1,75
1069,128	-1,15
1069,369	-0,85
1069,61	-1,65
1069,851	-2,25
1070,092	-2,15
1070,333	-1,25
1070,574	-2,35
1070,815	0,65
1071,056	-5,35
1071,297	-0,05
1071,538	-1,25
1071,779	1,15
1072,02	-0,45
1072,261	-0,95
1072,502	1,35
1072,743	-2,35
1072,984	-1,75
1073,225	-0,05
1073,466	-2,55
1073,706	-1,55
1073,947	1,45
1074,188	1,65
1074,429	-0,45
1074,67	-1,95
1074,911	3,55
1075,151	-3,05
1075,392	2,35
1075,633	-2,75
1075,874	-0,15
1076,114	-0,05
1076,355	1,85
1076,596	-0,05
1076,837	-5,35
1077,077	-2,95
1077,318	-0,75
1077,559	1,25
1077,8	-0,55
1078,04	2,15
1078,281	0,95
1078,522	0,25
1078,762	-0,15
1079,003	-0,75
1079,244	-1,75
1079,484	-1,05
1079,725	-4,05
1079,965	-0,45
1080,206	-1,55
1080,447	-1,25
1080,687	-3,75
1080,928	-2,35
1081,168	1,15
1081,409	2,55
1081,649	2,75
1081,89	3,25
1082,131	-1,75
1082,371	-0,65
1082,612	0,35
1082,852	0,95
1083,093	1,65
1083,333	-0,45
1083,573	2,55
1083,814	-1,25
1084,054	4,55
1084,295	0,15
1084,535	-0,95
1084,776	-0,45
1085,016	-4,35
1085,257	-2,65
1085,497	-2,05
1085,737	-1,05
1085,978	0,65
1086,218	-2,15
1086,458	-3,55
1086,699	0,75
1086,939	-1,45
1087,179	-2,35
1087,42	-3,25
1087,66	0,15
1087,9	-0,75
1088,141	0,25
1088,381	1,35
1088,621	0,65
1088,861	-3,95
1089,102	-2,35
1089,342	-3,15
1089,582	-0,65
1089,822	-5,75
1090,063	-4,35
1090,303	-3,15
1090,543	0,45
1090,783	-3,35
1091,023	-0,95
1091,263	-1,45
1091,504	-1,65
1091,744	-1,45
1091,984	-0,55
1092,224	-2,15
1092,464	-2,95
1092,704	-3,15
1092,944	-1,95
1093,184	-4,35
1093,425	1,05
1093,665	-2,95
1093,905	0,95
1094,145	0,65
1094,385	-2,85
1094,625	-0,75
1094,865	-3,25
1095,105	-0,45
1095,345	-0,55
1095,585	-3,05
1095,825	-4,15
1096,065	-3,35
1096,305	1,55
1096,545	-0,85
1096,785	-2,55
1097,025	-2,25
1097,265	-0,85
1097,504	-0,75
1097,744	0,35
1097,984	1,35
1098,224	-2,15
1098,464	-1,25
1098,704	-2,15
1098,944	-3,15
1099,184	-2,35
1099,423	-1,35
1099,663	-2,35
1099,903	-5,25
1100,143	-2,85
1100,383	-2,15
1100,622	0,25
1100,862	-0,65
1101,102	0,45
1101,342	1,85
1101,582	1,25
1101,821	1,55
1102,061	0,55
1102,301	-3,95
1102,54	-2,95
1102,78	-6,25
1103,02	0,35
1103,26	-1,65
1103,499	1,15
1103,739	-1,85
1103,979	0,85
1104,218	-0,85
1104,458	1,25
1104,697	-2,05
1104,937	-3,05
1105,177	-4,55
1105,416	-0,65
1105,656	-2,55
1105,896	-4,25
1106,135	-0,75
1106,375	0,15
1106,614	-0,65
1106,854	-1,05
1107,093	-2,55
1107,333	-1,45
1107,572	-1,65
1107,812	-2,35
1108,051	-3,25
1108,291	-2,05
1108,53	-3,65
1108,77	-2,45
1109,009	-1,25
1109,249	1,55
1109,488	-4,15
1109,728	-3,35
1109,967	1,05
1110,206	-1,85
1110,446	-3,05
1110,685	-3,25
1110,925	-2,85
1111,164	-2,45
1111,403	-0,95
1111,643	-1,95
1111,882	-3,95
1112,121	-3,85
1112,361	-4,55
1112,6	-0,95
1112,839	-1,85
1113,079	-4,35
1113,318	-2,65
1113,557	-1,05
1113,796	-3,55
1114,036	-0,25
1114,275	-5,75
1114,514	-1,65
1114,753	-2,65
1114,993	0,05
1115,232	-4,35
1115,471	-3,95
1115,71	-7,85
1115,949	-3,85
1116,188	-2,65
1116,428	-2,25
1116,667	-2,25
1116,906	-2,35
1117,145	-3,95
1117,384	-6,55
1117,623	-5,85
1117,862	-3,25
1118,101	-4,15
1118,341	2,95
1118,58	1,95
1118,819	0,65
1119,058	-0,45
1119,297	-2,15
1119,536	-2,55
1119,775	-0,35
1120,014	-2,85
1120,253	-2,15
1120,492	-0,35
1120,731	-3,25
1120,97	-2,25
1121,209	-2,25
1121,448	-4,75
1121,687	1,05
1121,926	-3,95
1122,165	-1,65
1122,404	-1,15
1122,642	0,65
1122,881	-1,55
1123,12	0,25
1123,359	0,35
1123,598	-1,45
1123,837	-2,85
1124,076	-4,15
1124,315	-4,85
1124,553	-2,05
1124,792	-0,75
1125,031	0,35
1125,27	-1,45
1125,509	2,05
1125,747	-7,75
1125,986	-3,85
1126,225	-0,55
