Data from HR4C34221__3__21-26-59-237.txt Node

Date: Fri Apr 11 21:26:59 MSK 2025
User: 123
Spectrometer: HR4C3422
Trigger mode: 4
Integration Time (sec): 1,000000E-1
Scans to average: 10
Electric dark correction enabled: true
Nonlinearity correction enabled: false
Boxcar width: 0
XAxis mode: Wavelengths
Number of Pixels in Spectrum: 3648
>>>>>Begin Spectral Data<<<<<
195,326	-29,78
195,597	-29,78
195,868	-29,78
196,139	-33,68
196,409	0,72
196,68	-1,98
196,951	-0,28
197,221	-6,58
197,492	-2,68
197,762	2,22
198,033	2,42
198,304	5,62
198,574	-8,58
198,845	7,12
199,116	-1,18
199,386	-1,48
199,657	-8,78
199,927	14,22
200,198	2,02
200,468	8,42
200,739	4,22
201,009	2,62
201,28	7,12
201,551	4,62
201,821	3,92
202,092	7,92
202,362	7,72
202,633	2,92
202,903	0,82
203,174	-0,18
203,444	-0,78
203,714	-2,48
203,985	6,82
204,255	3,92
204,526	60,12
204,796	6,12
205,067	9,92
205,337	3,92
205,607	6,62
205,878	44,22
206,148	16,82
206,419	0,92
206,689	-1,38
206,959	9,02
207,23	2,22
207,5	13,32
207,77	17,32
208,041	3,22
208,311	7,62
208,581	7,12
208,852	9,32
209,122	6,02
209,392	-2,48
209,663	1,02
209,933	4,02
210,203	7,22
210,473	2,62
210,744	1,12
211,014	12,82
211,284	9,42
211,554	9,22
211,825	7,82
212,095	-4,38
212,365	4,62
212,635	9,82
212,905	9,32
213,176	8,72
213,446	20,62
213,716	-2,28
213,986	7,32
214,256	4,52
214,526	10,32
214,797	5,72
215,067	8,62
215,337	12,62
215,607	3,92
215,877	8,82
216,147	4,12
216,417	1,02
216,687	8,82
216,957	1,72
217,227	3,62
217,497	3,72
217,767	6,92
218,038	15,22
218,308	5,32
218,578	9,92
218,848	9,12
219,118	6,12
219,388	5,02
219,658	3,32
219,928	11,32
220,198	7,72
220,468	12,82
220,737	-2,18
221,007	1,82
221,277	7,32
221,547	8,52
221,817	5,62
222,087	4,92
222,357	6,42
222,627	-5,48
222,897	10,22
223,167	1,72
223,437	-0,88
223,707	16,12
223,976	16,42
224,246	8,22
224,516	6,02
224,786	8,42
225,056	4,02
225,326	2,52
225,595	1,12
225,865	-0,78
226,135	3,72
226,405	4,42
226,675	15,02
226,944	16,42
227,214	6,82
227,484	2,52
227,754	4,02
228,023	-0,48
228,293	-4,98
228,563	10,32
228,833	11,82
229,102	10,62
229,372	4,62
229,642	6,32
229,911	15,22
230,181	4,92
230,451	7,32
230,72	6,02
230,99	3,72
231,26	9,02
231,529	6,22
231,799	10,42
232,069	2,62
232,338	14,62
232,608	12,62
232,877	2,92
233,147	0,42
233,417	6,82
233,686	12,92
233,956	2,72
234,225	1,72
234,495	-4,78
234,764	6,42
235,034	7,12
235,304	-5,18
235,573	69,72
235,843	15,42
236,112	6,72
236,382	6,42
236,651	7,12
236,921	10,12
237,19	3,72
237,46	2,72
237,729	-2,28
237,998	6,02
238,268	7,72
238,537	23,52
238,807	12,02
239,076	-1,78
239,346	-2,58
239,615	1,12
239,884	3,82
240,154	5,22
240,423	2,22
240,693	0,02
240,962	6,82
241,231	5,62
241,501	5,92
241,77	1,12
242,039	4,42
242,309	-3,08
242,578	-0,38
242,847	3,52
243,116	4,42
243,386	7,52
243,655	0,62
243,924	4,82
244,194	-1,28
244,463	0,62
244,732	9,62
245,001	3,22
245,271	60,92
245,54	12,22
245,809	-2,38
246,078	1,02
246,347	2,32
246,617	-1,18
246,886	7,62
247,155	8,92
247,424	13,02
247,693	3,42
247,963	4,42
248,232	7,02
248,501	13,22
248,77	0,52
249,039	6,82
249,308	8,82
249,577	7,42
249,846	5,82
250,115	7,62
250,385	9,52
250,654	5,62
250,923	12,62
251,192	10,52
251,461	6,52
251,73	6,82
251,999	2,32
252,268	2,62
252,537	6,82
252,806	-1,38
253,075	9,42
253,344	4,42
253,613	19,32
253,882	2,42
254,151	8,52
254,42	4,92
254,689	-0,78
254,958	0,82
255,227	0,42
255,496	4,82
255,765	6,32
256,033	-1,08
256,302	7,42
256,571	7,82
256,84	5,42
257,109	0,22
257,378	-5,48
257,647	-3,38
257,916	-0,08
258,184	3,62
258,453	-0,58
258,722	11,72
258,991	3,62
259,26	6,02
259,529	-0,88
259,797	4,22
260,066	10,22
260,335	12,82
260,604	9,32
260,873	8,52
261,141	4,42
261,41	-2,08
261,679	12,22
261,948	12,92
262,216	1,32
262,485	11,82
262,754	1,12
263,022	3,72
263,291	13,32
263,56	5,32
263,829	3,22
264,097	4,12
264,366	6,22
264,635	-0,38
264,903	1,92
265,172	8,82
265,44	6,22
265,709	1,72
265,978	9,02
266,246	10,02
266,515	5,22
266,784	0,72
267,052	0,72
267,321	2,12
267,589	84,82
267,858	10,92
268,126	4,22
268,395	10,82
268,663	12,12
268,932	13,92
269,201	4,42
269,469	9,32
269,738	7,32
270,006	2,82
270,275	7,82
270,543	-0,88
270,811	7,02
271,08	2,32
271,348	13,72
271,617	9,62
271,885	2,12
272,154	-1,38
272,422	12,62
272,691	6,32
272,959	20,02
273,227	7,82
273,496	5,02
273,764	7,12
274,033	17,32
274,301	3,12
274,569	1,32
274,838	1,02
275,106	2,82
275,374	12,02
275,643	12,12
275,911	4,02
276,179	8,62
276,448	15,12
276,716	13,32
276,984	-1,98
277,252	4,92
277,521	-0,18
277,789	-2,08
278,057	2,82
278,325	-1,58
278,594	12,72
278,862	11,12
279,13	5,42
279,398	3,72
279,667	8,32
279,935	8,72
280,203	8,32
280,471	7,92
280,739	6,12
281,008	-0,18
281,276	0,52
281,544	6,72
281,812	-5,28
282,08	6,42
282,348	15,22
282,616	8,62
282,884	3,22
283,153	6,52
283,421	12,22
283,689	7,02
283,957	-3,78
284,225	3,32
284,493	13,22
284,761	10,12
285,029	7,72
285,297	2,12
285,565	0,52
285,833	-2,18
286,101	1,02
286,369	-6,78
286,637	0,52
286,905	-4,48
287,173	4,62
287,441	1,52
287,709	11,42
287,977	12,42
288,245	-2,28
288,513	6,32
288,781	-0,08
289,049	7,22
289,317	4,72
289,585	-0,18
289,853	12,92
290,12	11,42
290,388	0,62
290,656	-0,18
290,924	-1,48
291,192	-0,18
291,46	-3,48
291,728	-0,58
291,996	3,12
292,263	16,02
292,531	6,62
292,799	-3,58
293,067	-1,88
293,335	11,22
293,602	3,22
293,87	10,52
294,138	12,12
294,406	4,62
294,673	1,12
294,941	8,82
295,209	4,02
295,477	8,32
295,744	12,72
296,012	10,92
296,28	5,32
296,548	-3,98
296,815	-1,28
297,083	11,12
297,351	13,52
297,618	8,52
297,886	2,62
298,154	18,92
298,421	9,62
298,689	7,82
298,956	2,32
299,224	2,72
299,492	-2,08
299,759	2,02
300,027	5,72
300,294	10,82
300,562	6,72
300,83	10,22
301,097	6,12
301,365	-0,18
301,632	2,52
301,9	6,12
302,167	8,72
302,435	2,82
302,702	8,72
302,97	6,52
303,237	11,32
303,505	16,22
303,772	12,12
304,04	6,52
304,307	-9,18
304,575	8,12
304,842	4,32
305,11	11,72
305,377	1,42
305,645	9,42
305,912	-1,98
306,179	3,22
306,447	-1,98
306,714	5,12
306,982	0,22
307,249	4,02
307,516	2,42
307,784	5,32
308,051	-4,48
308,318	15,22
308,586	10,02
308,853	3,72
309,12	-2,58
309,388	11,82
309,655	11,22
309,922	7,32
310,19	-3,88
310,457	10,52
310,724	16,02
310,991	5,72
311,259	9,92
311,526	4,22
311,793	-0,58
312,06	6,42
312,328	14,82
312,595	5,32
312,862	-0,08
313,129	13,12
313,396	-1,58
313,664	5,62
313,931	12,52
314,198	5,32
314,465	2,82
314,732	1,32
314,999	5,92
315,266	6,92
315,534	12,72
315,801	8,22
316,068	9,62
316,335	10,92
316,602	5,02
316,869	8,02
317,136	9,32
317,403	6,42
317,67	11,82
317,937	10,12
318,204	6,72
318,471	10,82
318,738	10,42
319,005	18,52
319,272	6,42
319,539	4,42
319,806	12,52
320,073	12,62
320,34	7,42
320,607	6,62
320,874	12,42
321,141	5,82
321,408	19,02
321,675	6,62
321,942	14,02
322,209	9,52
322,476	0,62
322,743	7,72
323,01	16,32
323,277	4,42
323,544	12,42
323,81	14,62
324,077	5,32
324,344	0,12
324,611	13,32
324,878	4,52
325,145	1,32
325,412	11,32
325,678	3,12
325,945	4,52
326,212	5,22
326,479	19,12
326,746	11,12
327,012	5,12
327,279	0,22
327,546	7,12
327,813	8,52
328,079	10,12
328,346	5,32
328,613	19,12
328,88	12,32
329,146	13,02
329,413	8,32
329,68	8,82
329,946	5,82
330,213	5,42
330,48	1,52
330,746	6,12
331,013	9,92
331,28	-0,78
331,546	7,62
331,813	-0,28
332,08	0,62
332,346	6,02
332,613	7,52
332,879	4,32
333,146	5,92
333,413	6,32
333,679	7,42
333,946	11,02
334,212	6,02
334,479	9,02
334,745	5,52
335,012	8,82
335,278	1,92
335,545	11,42
335,811	3,42
336,078	16,32
336,344	4,52
336,611	4,62
336,877	2,32
337,144	5,62
337,41	2,42
337,677	15,62
337,943	12,32
338,21	1,82
338,476	9,22
338,742	12,32
339,009	8,22
339,275	5,22
339,542	0,12
339,808	8,22
340,074	4,32
340,341	2,42
340,607	12,72
340,873	8,22
341,14	6,62
341,406	6,32
341,672	6,72
341,939	4,22
342,205	13,42
342,471	7,82
342,738	0,12
343,004	8,72
343,27	8,42
343,537	19,02
343,803	10,82
344,069	4,02
344,335	0,82
344,602	8,42
344,868	2,42
345,134	9,92
345,4	19,02
345,666	6,52
345,933	11,72
346,199	11,92
346,465	13,62
346,731	15,02
346,997	5,52
347,263	9,12
347,53	13,92
347,796	4,32
348,062	11,42
348,328	16,62
348,594	5,62
348,86	6,92
349,126	7,62
349,392	7,62
349,659	14,92
349,925	8,02
350,191	10,82
350,457	8,02
350,723	8,22
350,989	6,52
351,255	10,32
351,521	15,92
351,787	10,42
352,053	8,22
352,319	10,62
352,585	14,22
352,851	7,12
353,117	3,12
353,383	3,92
353,649	2,42
353,915	11,02
354,181	15,82
354,447	14,32
354,713	10,32
354,978	17,52
355,244	10,62
355,51	3,52
355,776	8,12
356,042	18,22
356,308	15,02
356,574	6,92
356,84	8,82
357,106	10,42
357,371	7,32
357,637	11,82
357,903	10,32
358,169	6,22
358,435	4,62
358,701	5,92
358,966	7,82
359,232	15,72
359,498	12,22
359,764	15,22
360,029	7,02
360,295	9,72
360,561	-3,98
360,827	11,92
361,092	12,52
361,358	13,62
361,624	12,62
361,89	1,42
362,155	11,02
362,421	18,32
362,687	13,02
362,952	12,62
363,218	20,52
363,484	15,62
363,749	14,32
364,015	13,62
364,281	14,02
364,546	14,62
364,812	10,12
365,077	9,82
365,343	13,62
365,609	19,02
365,874	10,42
366,14	12,52
366,405	15,52
366,671	9,62
366,936	11,22
367,202	5,62
367,467	17,22
367,733	9,32
367,999	18,72
368,264	13,22
368,53	14,22
368,795	14,12
369,061	12,02
369,326	13,52
369,591	15,02
369,857	15,52
370,122	9,42
370,388	6,82
370,653	15,42
370,919	4,92
371,184	4,92
371,45	17,82
371,715	16,52
371,98	17,02
372,246	8,72
372,511	16,72
372,776	18,72
373,042	17,22
373,307	8,32
373,573	4,72
373,838	7,12
374,103	17,82
374,369	18,72
374,634	8,82
374,899	10,72
375,164	10,62
375,43	15,72
375,695	20,62
375,96	13,02
376,226	14,82
376,491	16,82
376,756	19,82
377,021	17,82
377,286	14,92
377,552	13,32
377,817	13,12
378,082	15,22
378,347	11,22
378,613	20,22
378,878	24,92
379,143	11,52
379,408	15,52
379,673	13,52
379,938	16,32
380,203	9,82
380,469	19,72
380,734	31,52
380,999	20,22
381,264	12,92
381,529	12,52
381,794	13,12
382,059	19,72
382,324	19,12
382,589	12,82
382,854	10,02
383,119	13,12
383,385	17,42
383,65	5,02
383,915	14,12
384,18	15,32
384,445	6,72
384,71	15,12
384,975	18,32
385,24	22,12
385,505	11,52
385,77	18,82
386,034	14,92
386,299	15,12
386,564	24,02
386,829	19,42
387,094	20,22
387,359	12,72
387,624	12,62
387,889	18,52
388,154	13,92
388,419	20,12
388,684	21,22
388,949	16,62
389,213	11,92
389,478	2,82
389,743	14,22
390,008	16,12
390,273	28,42
390,538	15,32
390,802	15,42
391,067	20,42
391,332	12,72
391,597	7,42
391,862	20,52
392,126	27,02
392,391	21,42
392,656	10,92
392,921	18,52
393,185	13,92
393,45	20,82
393,715	17,62
393,979	16,32
394,244	6,22
394,509	20,62
394,774	31,52
395,038	23,82
395,303	22,12
395,568	28,02
395,832	18,82
396,097	22,92
396,361	18,22
396,626	11,92
396,891	16,12
397,155	19,62
397,42	19,32
397,685	13,12
397,949	11,92
398,214	22,12
398,478	19,42
398,743	17,52
399,007	29,22
399,272	22,32
399,536	17,42
399,801	21,02
400,066	14,42
400,33	19,12
400,595	20,92
400,859	18,62
401,124	20,82
401,388	21,82
401,652	18,12
401,917	37,32
402,181	14,82
402,446	24,72
402,71	16,62
402,975	17,92
403,239	20,62
403,504	22,82
403,768	17,32
404,032	21,22
404,297	24,22
404,561	21,92
404,826	30,52
405,09	32,12
405,354	13,02
405,619	28,12
405,883	22,82
406,147	28,72
406,412	22,62
406,676	20,92
406,94	22,92
407,205	26,62
407,469	28,42
407,733	25,62
407,997	21,92
408,262	31,42
408,526	24,12
408,79	26,42
409,054	13,72
409,319	25,22
409,583	21,92
409,847	22,02
410,111	27,82
410,375	30,42
410,64	35,72
410,904	32,72
411,168	23,02
411,432	31,12
411,696	22,42
411,96	24,82
412,225	37,22
412,489	38,72
412,753	28,62
413,017	30,82
413,281	37,02
413,545	36,52
413,809	30,62
414,073	33,22
414,337	24,12
414,602	34,02
414,866	34,12
415,13	39,82
415,394	45,82
415,658	44,12
415,922	46,72
416,186	45,52
416,45	44,52
416,714	51,92
416,978	43,22
417,242	50,42
417,506	51,82
417,77	58,12
418,034	55,52
418,298	48,32
418,562	68,32
418,825	61,12
419,089	67,32
419,353	63,32
419,617	73,02
419,881	67,42
420,145	73,02
420,409	81,32
420,673	85,92
420,937	82,22
421,2	89,02
421,464	100,52
421,728	103,02
421,992	103,42
422,256	110,32
422,52	119,32
422,783	116,22
423,047	125,32
423,311	134,02
423,575	137,12
423,839	134,92
424,102	141,52
424,366	155,72
424,63	171,32
424,894	175,02
425,157	188,22
425,421	187,02
425,685	198,82
425,949	210,62
426,212	226,12
426,476	232,62
426,74	238,02
427,003	263,62
427,267	265,12
427,531	277,12
427,794	299,62
428,058	306,12
428,322	306,92
428,585	343,22
428,849	357,02
429,112	379,62
429,376	402,62
429,64	410,92
429,903	429,62
430,167	449,22
430,43	470,12
430,694	486,22
430,957	504,82
431,221	527,62
431,485	553,72
431,748	559,52
432,012	590,92
432,275	613,82
432,539	658,62
432,802	686,62
433,066	701,92
433,329	713,32
433,593	764,92
433,856	772,32
434,119	817,62
434,383	843,82
434,646	854,32
434,91	894,72
435,173	932,82
435,437	955,42
435,7	992,82
435,963	1022,52
436,227	1050,62
436,49	1085,62
436,753	1128,72
437,017	1146,62
437,28	1203,42
437,544	1254,32
437,807	1285,32
438,07	1302,22
438,334	1356,12
438,597	1384,32
438,86	1463,12
439,123	1509,32
439,387	1550,92
439,65	1607,72
439,913	1705,02
440,177	1688,92
440,44	1767,62
440,703	1874,02
440,966	1882,02
441,229	1974,52
441,493	2031,42
441,756	2170,32
442,019	2187,32
442,282	2227,02
442,545	2347,12
442,809	2438,22
443,072	2531,22
443,335	2667,32
443,598	2802,62
443,861	2832,22
444,124	2935,52
444,388	3118,72
444,651	3213,12
444,914	3321,22
445,177	3451,72
445,44	3534,32
445,703	3669,62
445,966	3868,62
446,229	4048,02
446,492	4169,52
446,755	4463,12
447,018	4493,12
447,281	4678,02
447,544	4841,42
447,807	5045,22
448,07	5328,62
448,333	5436,92
448,596	5664,42
448,859	5969,42
449,122	6124,02
449,385	6260,22
449,648	6607,52
449,911	6738,42
450,174	7073,62
450,437	7219,02
450,7	7354,02
450,963	7442,62
451,226	7833,62
451,489	8006,82
451,752	8388,52
452,015	8507,52
452,277	8501,32
452,54	8833,32
452,803	8969,12
453,066	9111,62
453,329	9337,72
453,592	9550,82
453,855	9407,92
454,117	9788,52
454,38	9860,32
454,643	10056,72
454,906	9962,12
455,169	9838,42
455,431	9966,12
455,694	10016,22
455,957	10023,62
456,22	10398,72
456,482	10043,42
456,745	10010,02
457,008	10317,32
457,271	10213,82
457,533	10112,12
457,796	10148,22
458,059	9999,82
458,321	9724,32
458,584	9683,62
458,847	9663,72
459,109	9288,02
459,372	9567,92
459,635	9198,62
459,897	9121,22
460,16	9083,62
460,423	8967,52
460,685	8717,12
460,948	8685,72
461,21	8553,52
461,473	8373,92
461,735	8066,82
461,998	8026,12
462,261	7866,72
462,523	7929,72
462,786	7757,72
463,048	7584,62
463,311	7504,92
463,573	7361,42
463,836	7196,72
464,098	7006,92
464,361	6827,72
464,623	6726,02
464,886	6699,22
465,148	6837,02
465,411	6783,12
465,673	6815,12
465,936	6681,12
466,198	6627,62
466,46	6521,62
466,723	6472,52
466,985	6380,62
467,248	6342,82
467,51	6311,62
467,772	6302,62
468,035	6232,42
468,297	6232,32
468,56	6120,42
468,822	6124,12
469,084	6105,22
469,347	5970,92
469,609	6005,72
469,871	6067,52
470,133	5984,02
470,396	6029,02
470,658	5889,02
470,92	5837,82
471,183	5986,32
471,445	5842,02
471,707	5831,42
471,969	5800,22
472,232	5735,12
472,494	5749,62
472,756	5761,32
473,018	5607,12
473,281	5737,82
473,543	5640,42
473,805	5526,72
474,067	5581,92
474,329	5446,82
474,591	5492,82
474,854	5495,42
475,116	5350,22
475,378	5311,52
475,64	5241,32
475,902	5130,62
476,164	5200,32
476,426	5151,22
476,688	5047,92
476,951	4967,52
477,213	4960,02
477,475	4876,52
477,737	4889,82
477,999	4833,92
478,261	4760,52
478,523	4709,52
478,785	4710,62
479,047	4670,12
479,309	4612,12
479,571	4564,72
479,833	4477,32
480,095	4487,42
480,357	4463,82
480,619	4340,62
480,881	4352,52
481,143	4286,12
481,405	4242,12
481,667	4267,22
481,929	4239,82
482,191	4189,12
482,452	4150,82
482,714	4168,02
482,976	4114,92
483,238	4139,52
483,5	4144,62
483,762	4081,82
484,024	4157,32
484,286	4111,92
484,547	4052,62
484,809	4029,42
485,071	4068,12
485,333	4045,52
485,595	4016,52
485,857	4007,62
486,118	4000,02
486,38	4027,92
486,642	4024,62
486,904	4008,32
487,165	4018,82
487,427	4018,22
487,689	4028,92
487,951	4028,02
488,212	4024,72
488,474	4002,32
488,736	3985,42
488,998	4008,92
489,259	3977,92
489,521	3976,22
489,783	4020,22
490,044	4026,52
490,306	4020,52
490,568	4016,22
490,829	4018,92
491,091	3976,22
491,353	4025,82
491,614	4035,02
491,876	4009,42
492,137	4021,12
492,399	4052,92
492,661	4047,22
492,922	4044,02
493,184	4054,72
493,445	4083,12
493,707	4108,22
493,968	4112,02
494,23	4153,32
494,491	4136,32
494,753	4124,72
495,014	4165,02
495,276	4193,72
495,537	4192,72
495,799	4207,62
496,06	4256,82
496,322	4278,92
496,583	4319,72
496,845	4332,52
497,106	4356,82
497,368	4358,82
497,629	4409,52
497,89	4457,22
498,152	4498,22
498,413	4542,92
498,675	4560,72
498,936	4610,92
499,197	4635,72
499,459	4703,12
499,72	4731,42
499,981	4798,02
500,243	4843,52
500,504	4885,62
500,765	4945,62
501,027	4989,32
501,288	5057,72
501,549	5100,82
501,811	5132,12
502,072	5181,12
502,333	5275,12
502,594	5297,72
502,856	5371,42
503,117	5436,32
503,378	5485,82
503,639	5556,82
503,901	5645,12
504,162	5638,12
504,423	5740,72
504,684	5821,52
504,945	5859,82
505,207	5961,12
505,468	6011,92
505,729	6032,22
505,99	6167,02
506,251	6224,82
506,512	6265,32
506,774	6348,82
507,035	6420,22
507,296	6502,42
507,557	6542,22
507,818	6593,82
508,079	6700,42
508,34	6784,22
508,601	6846,12
508,862	6890,12
509,123	6993,92
509,384	7044,02
509,645	7109,72
509,906	7205,32
510,167	7222,72
510,428	7348,32
510,689	7425,82
510,95	7470,62
511,211	7560,22
511,472	7592,42
511,733	7699,92
511,994	7745,72
512,255	7824,32
512,516	7867,22
512,777	7968,42
513,038	8023,52
513,299	8119,82
513,56	8200,52
513,821	8257,32
514,082	8336,42
514,343	8409,82
514,603	8468,72
514,864	8464,82
515,125	8602,72
515,386	8668,22
515,647	8743,42
515,908	8794,42
516,169	8864,52
516,429	8971,02
516,69	8987,02
516,951	9056,32
517,212	9128,92
517,473	9137,62
517,733	9199,32
517,994	9308,12
518,255	9351,12
518,516	9391,12
518,776	9461,72
519,037	9550,22
519,298	9614,22
519,559	9712,82
519,819	9730,42
520,08	9799,92
520,341	9871,72
520,601	9925,32
520,862	9974,32
521,123	9981,42
521,383	10043,92
521,644	10130,82
521,905	10152,72
522,165	10224,12
522,426	10307,42
522,686	10307,72
522,947	10373,02
523,208	10464,52
523,468	10515,52
523,729	10561,32
523,989	10605,12
524,25	10617,42
524,51	10693,62
524,771	10716,32
525,032	10765,62
525,292	10819,62
525,553	10865,52
525,813	10938,22
526,074	11037,42
526,334	11028,72
526,595	11072,72
526,855	11089,02
527,116	11148,42
527,376	11176,52
527,636	11186,82
527,897	11283,02
528,157	11304,02
528,418	11343,82
528,678	11340,92
528,939	11361,82
529,199	11455,82
529,459	11506,22
529,72	11565,42
529,98	11545,62
530,24	11537,22
530,501	11570,92
530,761	11569,52
531,022	11617,72
531,282	11604,42
531,542	11678,22
531,803	11727,22
532,063	11674,02
532,323	11716,52
532,583	11804,92
532,844	11812,22
533,104	11800,32
533,364	11842,42
533,624	11870,22
533,885	11884,02
534,145	11924,32
534,405	11902,32
534,665	11919,12
534,926	11940,22
535,186	11943,12
535,446	11965,62
535,706	11963,72
535,966	11982,92
536,227	11922,82
536,487	11986,02
536,747	11997,42
537,007	12011,32
537,267	12056,12
537,527	12103,82
537,787	12090,72
538,048	12128,22
538,308	12132,02
538,568	12092,22
538,828	12119,92
539,088	12131,12
539,348	12202,12
539,608	12197,22
539,868	12212,82
540,128	12239,92
540,388	12184,12
540,648	12249,02
540,908	12220,12
541,168	12217,82
541,428	12267,92
541,688	12225,52
541,948	12255,42
542,208	12253,72
542,468	12261,22
542,728	12275,22
542,988	12288,72
543,248	12214,32
543,508	12307,42
543,768	12256,22
544,028	12340,92
544,288	12306,32
544,548	12342,72
544,807	12337,12
545,067	12334,32
545,327	12348,02
545,587	12316,92
545,847	12377,22
546,107	12345,02
546,367	12351,52
546,626	12362,32
546,886	12370,02
547,146	12386,62
547,406	12394,82
547,666	12381,42
547,925	12414,82
548,185	12374,52
548,445	12408,22
548,705	12409,92
548,965	12459,02
549,224	12475,32
549,484	12436,92
549,744	12428,62
550,003	12481,52
550,263	12428,32
550,523	12432,22
550,783	12417,72
551,042	12382,22
551,302	12426,82
551,562	12444,22
551,821	12415,12
552,081	12460,52
552,341	12535,42
552,6	12509,82
552,86	12450,62
553,119	12480,42
553,379	12435,42
553,639	12479,62
553,898	12484,82
554,158	12450,62
554,417	12507,42
554,677	12521,02
554,936	12557,12
555,196	12502,32
555,456	12515,52
555,715	12512,12
555,975	12544,42
556,234	12549,22
556,494	12589,02
556,753	12530,62
557,013	12553,02
557,272	12537,62
557,532	12611,52
557,791	12566,32
558,051	12632,72
558,31	12597,52
558,569	12614,32
558,829	12588,92
559,088	12582,22
559,348	12608,82
559,607	12635,82
559,866	12591,62
560,126	12667,92
560,385	12674,72
560,645	12683,92
560,904	12624,32
561,163	12615,02
561,423	12629,22
561,682	12648,32
561,941	12680,82
562,201	12602,22
562,46	12704,12
562,719	12583,22
562,979	12637,12
563,238	12668,22
563,497	12667,82
563,756	12685,42
564,016	12742,22
564,275	12745,72
564,534	12750,22
564,793	12739,92
565,053	12738,92
565,312	12791,32
565,571	12778,52
565,83	12738,22
566,089	12710,12
566,349	12686,32
566,608	12748,72
566,867	12715,62
567,126	12676,02
567,385	12682,82
567,644	12682,22
567,903	12672,32
568,163	12671,82
568,422	12611,02
568,681	12635,92
568,94	12676,92
569,199	12622,12
569,458	12648,12
569,717	12691,62
569,976	12713,82
570,235	12648,72
570,494	12677,52
570,753	12669,42
571,012	12661,12
571,271	12585,42
571,53	12618,62
571,789	12682,42
572,048	12657,42
572,307	12701,02
572,566	12691,72
572,825	12631,12
573,084	12677,42
573,343	12685,72
573,602	12623,72
573,861	12564,92
574,12	12608,42
574,379	12610,02
574,638	12572,32
574,897	12507,42
575,156	12648,72
575,414	12562,92
575,673	12566,92
575,932	12528,12
576,191	12474,22
576,45	12542,82
576,709	12551,42
576,968	12501,02
577,226	12476,82
577,485	12537,82
577,744	12557,02
578,003	12531,22
578,262	12451,52
578,52	12461,92
578,779	12463,12
579,038	12403,12
579,297	12392,82
579,555	12373,22
579,814	12415,82
580,073	12337,72
580,332	12352,02
580,59	12380,92
580,849	12306,62
581,108	12337,02
581,366	12264,02
581,625	12266,62
581,884	12245,22
582,142	12238,02
582,401	12206,02
582,66	12202,62
582,918	12168,02
583,177	12190,32
583,436	12093,72
583,694	12150,32
583,953	12111,12
584,211	12135,82
584,47	12143,52
584,728	12083,72
584,987	12044,92
585,246	12048,32
585,504	11999,92
585,763	11982,72
586,021	12018,82
586,28	11962,52
586,538	11895,32
586,797	11935,22
587,055	11839,32
587,314	11887,32
587,572	11826,32
587,831	11842,02
588,089	11791,12
588,348	11791,82
588,606	11715,72
588,864	11702,72
589,123	11722,32
589,381	11723,02
589,64	11687,02
589,898	11727,32
590,157	11641,52
590,415	11577,72
590,673	11627,72
590,932	11604,82
591,19	11539,42
591,448	11590,92
591,707	11484,72
591,965	11494,62
592,223	11455,52
592,482	11469,22
592,74	11376,32
592,998	11331,32
593,257	11369,02
593,515	11304,62
593,773	11295,42
594,031	11242,62
594,29	11222,12
594,548	11222,12
594,806	11177,22
595,064	11181,62
595,323	11093,52
595,581	11087,32
595,839	11156,32
596,097	11109,22
596,355	11052,52
596,613	11063,52
596,872	10970,42
597,13	11010,32
597,388	10949,22
597,646	10937,32
597,904	10835,62
598,162	10868,52
598,42	10848,92
598,679	10789,82
598,937	10786,42
599,195	10740,42
599,453	10756,42
599,711	10700,42
599,969	10697,12
600,227	10657,12
600,485	10596,12
600,743	10566,82
601,001	10515,82
601,259	10526,52
601,517	10516,82
601,775	10460,92
602,033	10423,62
602,291	10429,72
602,549	10315,02
602,807	10369,42
603,065	10310,42
603,323	10256,32
603,581	10248,92
603,839	10276,32
604,097	10221,12
604,355	10203,72
604,613	10163,52
604,871	10100,52
605,128	10120,42
605,386	10054,82
605,644	10024,02
605,902	10003,82
606,16	10002,92
606,418	9989,22
606,676	9897,72
606,933	9886,82
607,191	9908,32
607,449	9849,32
607,707	9805,52
607,965	9786,82
608,223	9758,92
608,48	9661,12
608,738	9680,22
608,996	9693,02
609,254	9599,62
609,511	9582,32
609,769	9562,02
610,027	9516,32
610,285	9446,92
610,542	9501,62
610,8	9456,22
611,058	9419,12
611,315	9399,02
611,573	9349,42
611,831	9326,62
612,088	9346,52
612,346	9283,92
612,604	9289,92
612,861	9209,22
613,119	9226,62
613,376	9206,02
613,634	9164,62
613,892	9148,12
614,149	9121,02
614,407	9103,72
614,664	9039,42
614,922	9085,52
615,18	9018,12
615,437	9005,82
615,695	8939,72
615,952	8971,42
616,21	8919,52
616,467	8902,42
616,725	8883,22
616,982	8869,92
617,24	8836,02
617,497	8850,02
617,755	8902,62
618,012	8775,72
618,27	8765,52
618,527	8683,42
618,784	8690,52
619,042	8605,22
619,299	8609,32
619,557	8574,42
619,814	8547,42
620,071	8560,92
620,329	8497,02
620,586	8450,82
620,844	8459,92
621,101	8442,32
621,358	8416,82
621,616	8417,92
621,873	8400,72
622,13	8363,82
622,388	8298,82
622,645	8261,32
622,902	8259,62
623,159	8208,02
623,417	8213,92
623,674	8136,82
623,931	8139,02
624,188	8116,32
624,446	8087,62
624,703	8072,52
624,96	8067,22
625,217	7957,62
625,475	8017,42
625,732	7949,92
625,989	7889,82
626,246	7860,62
626,503	7849,52
626,761	7868,52
627,018	7809,02
627,275	7786,12
627,532	7745,52
627,789	7754,82
628,046	7724,52
628,303	7680,52
628,56	7659,72
628,818	7596,02
629,075	7592,32
629,332	7541,92
629,589	7546,62
629,846	7558,42
630,103	7486,22
630,36	7496,62
630,617	7424,32
630,874	7427,52
631,131	7407,72
631,388	7345,12
631,645	7301,72
631,902	7333,02
632,159	7244,42
632,416	7252,82
632,673	7231,22
632,93	7186,92
633,187	7152,52
633,444	7118,12
633,701	7141,42
633,958	7109,22
634,215	7039,92
634,471	7042,62
634,728	6976,12
634,985	6969,72
635,242	6949,22
635,499	6940,32
635,756	6921,52
636,013	6867,82
636,27	6805,62
636,526	6822,32
636,783	6805,12
637,04	6748,22
637,297	6755,62
637,554	6700,82
637,81	6660,02
638,067	6612,62
638,324	6642,72
638,581	6577,52
638,838	6539,12
639,094	6508,12
639,351	6474,52
639,608	6503,02
639,864	6452,62
640,121	6431,32
640,378	6397,52
640,635	6353,82
640,891	6332,32
641,148	6304,82
641,405	6265,72
641,661	6258,52
641,918	6211,62
642,175	6189,22
642,431	6160,52
642,688	6128,22
642,944	6123,22
643,201	6107,02
643,458	6085,22
643,714	6038,52
643,971	5975,82
644,227	5946,22
644,484	5956,62
644,741	5915,52
644,997	5905,22
645,254	5827,02
645,51	5808,52
645,767	5781,02
646,023	5809,22
646,28	5783,12
646,536	5743,12
646,793	5691,82
647,049	5680,52
647,306	5651,82
647,562	5623,62
647,819	5594,32
648,075	5564,22
648,331	5495,22
648,588	5499,02
648,844	5488,02
649,101	5468,92
649,357	5420,52
649,613	5397,52
649,87	5374,52
650,126	5346,52
650,383	5341,02
650,639	5335,22
650,895	5279,32
651,152	5248,32
651,408	5184,02
651,664	5176,42
651,921	5144,32
652,177	5133,82
652,433	5115,52
652,689	5084,92
652,946	5027,02
653,202	5023,12
653,458	5003,02
653,715	4978,02
653,971	4942,72
654,227	4946,12
654,483	4891,22
654,739	4878,12
654,996	4834,82
655,252	4807,52
655,508	4788,12
655,764	4775,42
656,02	4731,72
656,277	4694,62
656,533	4701,42
656,789	4677,02
657,045	4619,12
657,301	4605,62
657,557	4574,42
657,813	4545,82
658,07	4528,22
658,326	4496,22
658,582	4477,92
658,838	4468,72
659,094	4442,92
659,35	4396,22
659,606	4397,62
659,862	4363,52
660,118	4327,52
660,374	4316,82
660,63	4283,62
660,886	4287,12
661,142	4244,92
661,398	4219,42
661,654	4189,02
661,91	4170,62
662,166	4170,32
662,422	4109,32
662,678	4101,12
662,934	4094,62
663,19	4071,52
663,446	4046,42
663,702	4045,52
663,957	3973,82
664,213	3983,42
664,469	3938,32
664,725	3958,52
664,981	3910,12
665,237	3869,82
665,493	3882,82
665,749	3852,72
666,004	3832,62
666,26	3800,02
666,516	3766,42
666,772	3760,82
667,028	3754,82
667,283	3727,82
667,539	3710,52
667,795	3691,22
668,051	3678,12
668,307	3631,82
668,562	3628,32
668,818	3601,82
669,074	3563,52
669,329	3545,32
669,585	3546,72
669,841	3528,42
670,097	3484,12
670,352	3468,92
670,608	3451,72
670,864	3448,42
671,119	3414,32
671,375	3399,72
671,631	3390,12
671,886	3380,32
672,142	3334,22
672,397	3340,92
672,653	3303,52
672,909	3297,42
673,164	3271,82
673,42	3253,42
673,675	3253,42
673,931	3221,82
674,186	3188,82
674,442	3169,32
674,698	3168,02
674,953	3158,12
675,209	3128,42
675,464	3110,82
675,72	3082,62
675,975	3071,52
676,231	3065,42
676,486	3024,82
676,742	3040,62
676,997	3014,32
677,252	2995,62
677,508	2985,52
677,763	2953,02
678,019	2933,72
678,274	2929,12
678,53	2882,52
678,785	2871,62
679,04	2870,22
679,296	2833,22
679,551	2820,42
679,806	2825,92
680,062	2801,72
680,317	2779,52
680,572	2766,62
680,828	2749,22
681,083	2737,72
681,338	2727,62
681,594	2701,82
681,849	2687,12
682,104	2680,82
682,36	2656,12
682,615	2636,42
682,87	2632,02
683,125	2616,82
683,381	2613,22
683,636	2586,22
683,891	2553,32
684,146	2540,52
684,401	2539,72
684,657	2532,62
684,912	2509,12
685,167	2482,92
685,422	2482,32
685,677	2464,32
685,932	2447,02
686,188	2444,22
686,443	2420,92
686,698	2422,32
686,953	2399,82
687,208	2393,62
687,463	2388,52
687,718	2368,72
687,973	2354,92
688,228	2327,42
688,483	2320,32
688,739	2328,92
688,994	2291,32
689,249	2263,42
689,504	2278,62
689,759	2268,52
690,014	2229,82
690,269	2218,92
690,524	2225,82
690,779	2199,42
691,034	2187,62
691,289	2178,32
691,544	2170,22
691,798	2153,72
692,053	2152,02
692,308	2143,52
692,563	2104,72
692,818	2093,72
693,073	2093,42
693,328	2083,72
693,583	2079,12
693,838	2053,02
694,093	2030,32
694,347	2019,52
694,602	2032,82
694,857	2002,32
695,112	1999,02
695,367	1991,22
695,622	1967,92
695,876	1949,62
696,131	1941,52
696,386	1936,22
696,641	1926,72
696,896	1900,32
697,15	1887,12
697,405	1866,82
697,66	1882,32
697,915	1862,02
698,169	1849,32
698,424	1844,12
698,679	1841,02
698,933	1807,92
699,188	1809,22
699,443	1781,52
699,698	1775,32
699,952	1760,52
700,207	1765,22
700,461	1756,22
700,716	1747,02
700,971	1717,22
701,225	1726,72
701,48	1711,12
701,735	1693,72
701,989	1686,62
702,244	1673,82
702,498	1675,12
702,753	1662,42
703,007	1658,32
703,262	1641,32
703,517	1631,22
703,771	1608,92
704,026	1608,72
704,28	1591,02
704,535	1596,12
704,789	1580,42
705,044	1561,42
705,298	1552,32
705,553	1561,12
705,807	1534,92
706,062	1527,92
706,316	1526,22
706,57	1498,52
706,825	1499,62
707,079	1507,42
707,334	1473,32
707,588	1473,02
707,842	1469,22
708,097	1432,52
708,351	1421,22
708,606	1433,92
708,86	1421,82
709,114	1424,12
709,369	1414,52
709,623	1401,32
709,877	1386,32
710,132	1395,52
710,386	1382,02
710,64	1370,72
710,895	1365,02
711,149	1356,22
711,403	1344,42
711,657	1327,82
711,912	1311,22
712,166	1316,42
712,42	1309,12
712,674	1291,82
712,928	1276,22
713,183	1282,32
713,437	1268,62
713,691	1272,32
713,945	1262,82
714,199	1230,92
714,454	1241,12
714,708	1231,62
714,962	1204,42
715,216	1207,42
715,47	1212,42
715,724	1199,52
715,978	1188,52
716,233	1183,92
716,487	1177,92
716,741	1172,12
716,995	1167,72
717,249	1156,12
717,503	1140,42
717,757	1125,92
718,011	1139,02
718,265	1136,52
718,519	1113,92
718,773	1098,32
719,027	1102,52
719,281	1088,92
719,535	1076,02
719,789	1078,02
720,043	1076,72
720,297	1067,32
720,551	1040,02
720,805	1044,52
721,059	1050,42
721,313	1034,92
721,567	1021,62
721,821	1013,12
722,074	1005,02
722,328	1000,12
722,582	996,32
722,836	996,72
723,09	976,62
723,344	974,62
723,598	971,72
723,851	955,52
724,105	963,62
724,359	947,22
724,613	952,12
724,867	932,32
725,121	928,12
725,374	918,62
725,628	905,72
725,882	908,12
726,136	922,12
726,389	899,22
726,643	891,32
726,897	885,72
727,151	886,12
727,404	877,22
727,658	879,52
727,912	869,62
728,165	864,52
728,419	856,62
728,673	838,82
728,926	830,72
729,18	835,82
729,434	831,22
729,687	826,02
729,941	822,32
730,195	822,92
730,448	793,32
730,702	786,52
730,955	790,32
731,209	799,82
731,462	791,02
731,716	774,62
731,97	767,62
732,223	770,02
732,477	769,12
732,73	764,92
732,984	755,52
733,237	754,32
733,491	754,12
733,744	741,02
733,998	743,92
734,251	734,32
734,505	723,62
734,758	710,22
735,012	705,32
735,265	703,12
735,518	704,82
735,772	698,02
736,025	686,02
736,279	683,42
736,532	675,82
736,785	687,92
737,039	680,22
737,292	672,42
737,546	660,32
737,799	644,32
738,052	658,52
738,306	643,92
738,559	645,42
738,812	631,32
739,066	628,12
739,319	620,02
739,572	625,22
739,825	622,32
740,079	623,42
740,332	618,52
740,585	613,12
740,838	605,12
741,092	594,12
741,345	588,22
741,598	583,72
741,851	585,22
742,104	590,02
742,358	585,02
742,611	577,22
742,864	580,02
743,117	569,92
743,37	573,02
743,623	560,82
743,877	558,22
744,13	553,32
744,383	547,52
744,636	536,92
744,889	544,22
745,142	535,62
745,395	530,92
745,648	520,52
745,901	523,52
746,154	519,42
746,408	515,82
746,661	513,12
746,914	503,92
747,167	501,02
747,42	504,82
747,673	491,62
747,926	489,22
748,179	492,92
748,432	482,02
748,685	487,32
748,938	491,92
749,19	469,22
749,443	468,92
749,696	459,82
749,949	472,52
750,202	471,22
750,455	462,12
750,708	466,62
750,961	444,62
751,214	473,82
751,467	445,42
751,719	439,72
751,972	426,42
752,225	436,12
752,478	428,82
752,731	424,12
752,984	438,12
753,236	426,72
753,489	422,42
753,742	406,52
753,995	411,42
754,248	416,12
754,5	396,82
754,753	403,52
755,006	411,22
755,259	392,12
755,511	392,72
755,764	382,42
756,017	384,12
756,269	374,42
756,522	371,12
756,775	386,62
757,027	373,82
757,28	361,62
757,533	359,02
757,785	362,92
758,038	353,12
758,291	350,42
758,543	352,12
758,796	354,52
759,049	352,72
759,301	345,22
759,554	359,72
759,806	345,02
760,059	350,52
760,311	349,52
760,564	337,72
760,817	335,22
761,069	324,62
761,322	322,62
761,574	320,52
761,827	327,12
762,079	324,52
762,332	317,82
762,584	315,12
762,837	310,02
763,089	306,62
763,341	316,02
763,594	307,22
763,846	302,72
764,099	304,62
764,351	303,22
764,604	294,32
764,856	290,32
765,108	283,02
765,361	289,62
765,613	291,22
765,865	289,92
766,118	280,12
766,37	290,02
766,623	275,12
766,875	275,52
767,127	275,32
767,379	275,32
767,632	273,52
767,884	263,92
768,136	267,42
768,389	270,52
768,641	266,52
768,893	259,72
769,145	256,12
769,398	258,42
769,65	256,72
769,902	252,82
770,154	248,32
770,406	250,02
770,659	248,92
770,911	249,72
771,163	255,32
771,415	240,92
771,667	224,22
771,919	242,02
772,172	243,52
772,424	228,72
772,676	235,32
772,928	238,32
773,18	232,62
773,432	229,82
773,684	226,52
773,936	223,22
774,188	217,42
774,44	211,02
774,693	216,72
774,945	212,32
775,197	209,02
775,449	214,52
775,701	209,12
775,953	202,32
776,205	199,62
776,457	204,82
776,709	205,12
776,961	203,22
777,213	209,92
777,464	210,72
777,716	188,02
777,968	189,82
778,22	186,72
778,472	192,62
778,724	199,32
778,976	189,12
779,228	188,62
779,48	182,32
779,732	198,82
779,984	190,12
780,235	189,92
780,487	180,82
780,739	184,72
780,991	174,02
781,243	174,22
781,494	176,52
781,746	184,12
781,998	168,82
782,25	158,52
782,502	172,82
782,753	175,82
783,005	159,82
783,257	159,42
783,509	165,22
783,76	157,02
784,012	166,62
784,264	151,82
784,515	157,32
784,767	162,62
785,019	147,82
785,271	146,92
785,522	143,92
785,774	148,82
786,026	145,52
786,277	154,22
786,529	157,92
786,78	148,12
787,032	146,42
787,284	142,62
787,535	145,22
787,787	142,52
788,038	142,22
788,29	136,12
788,541	141,82
788,793	133,02
789,045	135,52
789,296	137,82
789,548	131,42
789,799	131,72
790,051	131,62
790,302	124,82
790,554	130,42
790,805	132,22
791,057	135,52
791,308	129,12
791,559	123,02
791,811	121,52
792,062	130,72
792,314	129,62
792,565	124,62
792,817	123,82
793,068	123,32
793,319	117,52
793,571	121,62
793,822	118,22
794,073	125,42
794,325	114,92
794,576	117,82
794,827	113,92
795,079	103,62
795,33	109,82
795,581	114,42
795,833	112,92
796,084	115,22
796,335	110,12
796,587	104,42
796,838	118,22
797,089	107,92
797,34	105,52
797,592	100,62
797,843	106,62
798,094	103,02
798,345	100,32
798,596	103,62
798,848	104,62
799,099	99,42
799,35	102,22
799,601	109,02
799,852	99,52
800,103	93,82
800,355	94,52
800,606	130,32
800,857	103,02
801,108	99,52
801,359	101,02
801,61	90,92
801,861	86,52
802,112	89,62
802,363	82,12
802,614	92,02
802,865	88,12
803,116	94,12
803,367	83,62
803,618	90,62
803,869	87,72
804,12	80,62
804,371	82,82
804,622	84,32
804,873	79,22
805,124	79,42
805,375	76,12
805,626	79,92
805,877	79,02
806,128	80,42
806,379	75,62
806,63	81,82
806,881	78,32
807,132	77,52
807,383	71,92
807,634	69,92
807,884	78,32
808,135	79,92
808,386	74,62
808,637	76,92
808,888	73,82
809,139	63,82
809,389	70,82
809,64	82,32
809,891	75,12
810,142	74,32
810,393	69,52
810,643	67,32
810,894	71,22
811,145	61,22
811,396	65,62
811,646	66,52
811,897	66,32
812,148	75,92
812,398	68,02
812,649	75,32
812,9	66,02
813,151	68,72
813,401	61,82
813,652	104,12
813,902	72,12
814,153	63,12
814,404	72,62
814,654	63,32
814,905	65,82
815,156	69,92
815,406	62,52
815,657	62,02
815,907	59,92
816,158	55,02
816,408	55,32
816,659	59,62
816,91	59,62
817,16	60,12
817,411	59,42
817,661	56,62
817,912	57,22
818,162	46,62
818,413	57,42
818,663	53,72
818,914	50,02
819,164	51,72
819,414	46,52
819,665	66,62
819,915	54,72
820,166	55,12
820,416	44,92
820,667	60,52
820,917	53,22
821,167	46,62
821,418	48,92
821,668	41,82
821,918	55,32
822,169	42,62
822,419	54,02
822,67	46,72
822,92	40,92
823,17	47,02
823,42	48,72
823,671	51,92
823,921	47,72
824,171	42,82
824,422	43,42
824,672	40,92
824,922	50,02
825,172	42,92
825,423	40,92
825,673	42,82
825,923	42,52
826,173	43,22
826,423	37,42
826,674	34,72
826,924	43,42
827,174	40,82
827,424	44,92
827,674	43,92
827,924	50,62
828,175	46,82
828,425	32,62
828,675	38,32
828,925	40,02
829,175	51,32
829,425	41,22
829,675	39,32
829,925	38,02
830,175	43,52
830,425	34,42
830,675	42,32
830,925	36,02
831,175	48,22
831,425	31,92
831,676	30,52
831,926	32,52
832,175	28,32
832,425	33,92
832,675	41,02
832,925	50,42
833,175	35,92
833,425	27,42
833,675	34,52
833,925	42,82
834,175	42,82
834,425	40,32
834,675	41,32
834,925	30,32
835,175	32,92
835,425	29,42
835,674	28,02
835,924	32,12
836,174	22,42
836,424	23,12
836,674	27,72
836,924	37,02
837,173	28,92
837,423	33,72
837,673	32,92
837,923	27,52
838,173	26,72
838,422	34,92
838,672	40,92
838,922	39,32
839,172	27,12
839,421	33,62
839,671	24,72
839,921	17,52
840,17	27,02
840,42	26,02
840,67	28,52
840,919	28,22
841,169	29,62
841,419	32,12
841,668	27,52
841,918	24,72
842,168	24,62
842,417	25,62
842,667	31,82
842,916	23,52
843,166	24,22
843,416	23,72
843,665	26,52
843,915	25,82
844,164	29,72
844,414	27,92
844,663	27,92
844,913	34,42
845,162	36,82
845,412	27,82
845,662	23,72
845,911	20,42
846,16	19,12
846,41	24,02
846,659	19,42
846,909	22,82
847,158	21,62
847,408	17,22
847,657	20,72
847,907	19,92
848,156	18,82
848,405	20,92
848,655	24,12
848,904	22,02
849,154	24,52
849,403	26,12
849,652	25,42
849,902	14,32
850,151	16,02
850,4	17,02
850,65	16,62
850,899	19,12
851,148	23,92
851,398	10,62
851,647	40,62
851,896	23,02
852,145	23,92
852,395	25,12
852,644	18,82
852,893	22,72
853,142	25,42
853,392	11,82
853,641	19,32
853,89	18,72
854,139	23,02
854,388	18,22
854,637	27,12
854,887	12,22
855,136	11,92
855,385	21,92
855,634	22,22
855,883	33,12
856,132	22,12
856,381	14,12
856,631	15,22
856,88	22,82
857,129	23,42
857,378	17,02
857,627	11,82
857,876	16,32
858,125	23,62
858,374	21,02
858,623	20,62
858,872	23,32
859,121	19,12
859,37	19,42
859,619	23,02
859,868	19,32
860,117	12,62
860,366	7,92
860,615	19,42
860,864	13,92
861,113	13,32
861,362	15,42
861,611	13,72
861,86	13,42
862,108	16,42
862,357	21,82
862,606	10,32
862,855	13,72
863,104	8,12
863,353	10,32
863,602	19,32
863,851	58,62
864,099	21,22
864,348	9,82
864,597	18,92
864,846	14,32
865,095	19,92
865,343	12,12
865,592	10,72
865,841	16,12
866,09	22,22
866,338	9,02
866,587	14,02
866,836	16,42
867,085	11,52
867,333	13,02
867,582	14,72
867,831	15,62
868,079	12,02
868,328	16,82
868,577	13,42
868,825	14,52
869,074	12,02
869,323	9,52
869,571	9,42
869,82	12,32
870,068	15,32
870,317	11,82
870,566	5,52
870,814	6,42
871,063	10,42
871,311	20,22
871,56	14,12
871,808	13,12
872,057	19,32
872,306	15,32
872,554	7,62
872,803	9,82
873,051	12,52
873,3	7,12
873,548	6,22
873,797	9,82
874,045	10,82
874,293	20,72
874,542	14,12
874,79	11,12
875,039	5,92
875,287	9,82
875,536	12,12
875,784	3,12
876,032	15,02
876,281	10,22
876,529	14,52
876,777	10,62
877,026	9,32
877,274	15,32
877,523	17,42
877,771	18,32
878,019	0,72
878,267	10,92
878,516	11,42
878,764	9,12
879,012	15,62
879,261	13,42
879,509	20,42
879,757	12,12
880,005	20,62
880,254	9,52
880,502	11,22
880,75	6,22
880,998	12,52
881,246	16,02
881,495	3,62
881,743	12,92
881,991	10,52
882,239	9,62
882,487	13,32
882,735	13,52
882,984	4,12
883,232	15,82
883,48	10,82
883,728	14,02
883,976	11,32
884,224	0,52
884,472	10,52
884,72	8,52
884,968	15,02
885,216	21,62
885,464	6,92
885,712	10,22
885,96	12,02
886,208	9,62
886,457	5,32
886,704	14,12
886,952	11,72
887,2	7,82
887,448	10,72
887,696	7,02
887,944	21,72
888,192	12,12
888,44	7,92
888,688	4,92
888,936	13,22
889,184	16,92
889,432	14,62
889,68	12,82
889,928	7,82
890,175	8,12
890,423	17,22
890,671	6,12
890,919	16,12
891,167	18,92
891,415	9,32
891,663	11,02
891,91	7,82
892,158	13,32
892,406	11,52
892,654	1,62
892,901	12,12
893,149	11,92
893,397	6,42
893,645	4,12
893,892	6,62
894,14	12,12
894,388	16,22
894,636	11,92
894,883	0,12
895,131	9,62
895,379	2,72
895,626	7,02
895,874	5,72
896,122	11,32
896,369	10,42
896,617	7,82
896,864	15,52
897,112	10,42
897,36	6,92
897,607	15,72
897,855	5,42
898,102	13,62
898,35	6,22
898,598	12,42
898,845	9,02
899,093	6,12
899,34	3,32
899,588	7,72
899,835	5,72
900,083	16,52
900,33	6,92
900,578	13,42
900,825	8,62
901,073	6,32
901,32	8,82
901,568	7,72
901,815	8,12
902,062	7,12
902,31	10,02
902,557	11,52
902,805	52,82
903,052	10,52
903,299	3,22
903,547	12,02
903,794	11,92
904,042	2,72
904,289	6,82
904,536	7,32
904,784	6,52
905,031	10,12
905,278	17,22
905,525	13,52
905,773	4,72
906,02	6,42
906,267	7,02
906,515	17,72
906,762	10,92
907,009	8,62
907,256	10,92
907,504	11,72
907,751	11,82
907,998	10,02
908,245	13,22
908,492	6,82
908,74	7,42
908,987	21,22
909,234	4,12
909,481	7,22
909,728	8,72
909,975	7,52
910,222	11,82
910,47	2,42
910,717	1,72
910,964	4,02
911,211	3,42
911,458	2,22
911,705	13,32
911,952	3,32
912,199	3,02
912,446	3,12
912,693	14,02
912,94	4,12
913,187	8,52
913,434	10,42
913,681	2,02
913,928	0,22
914,175	3,92
914,422	2,42
914,669	12,92
914,916	4,02
915,163	9,02
915,41	-1,98
915,657	-0,78
915,904	17,12
916,151	12,92
916,398	21,72
916,644	-0,58
916,891	8,32
917,138	3,92
917,385	15,22
917,632	1,02
917,879	7,62
918,126	14,92
918,372	10,92
918,619	9,62
918,866	10,92
919,113	9,92
919,36	1,52
919,606	18,62
919,853	7,52
920,1	6,92
920,347	4,22
920,593	7,42
920,84	4,42
921,087	5,92
921,334	5,32
921,58	3,22
921,827	7,72
922,074	-1,18
922,32	9,42
922,567	6,92
922,814	4,32
923,06	9,32
923,307	10,42
923,554	11,72
923,8	5,62
924,047	8,12
924,293	5,82
924,54	6,92
924,787	5,42
925,033	9,22
925,28	3,92
925,526	17,22
925,773	15,32
926,019	9,42
926,266	1,22
926,512	2,62
926,759	4,42
927,005	14,42
927,252	10,42
927,498	7,02
927,745	0,92
927,991	4,92
928,238	5,62
928,484	18,02
928,731	5,32
928,977	10,92
929,223	19,92
929,47	6,02
929,716	0,72
929,963	1,32
930,209	10,42
930,455	13,82
930,702	6,22
930,948	-0,48
931,194	5,72
931,441	5,42
931,687	-1,88
931,933	6,72
932,18	0,72
932,426	4,22
932,672	7,72
932,919	7,72
933,165	4,92
933,411	14,42
933,657	9,52
933,904	6,72
934,15	1,72
934,396	3,12
934,642	3,52
934,889	7,72
935,135	6,62
935,381	16,82
935,627	5,22
935,873	6,92
936,119	9,12
936,366	6,32
936,612	6,72
936,858	16,32
937,104	12,42
937,35	17,12
937,596	4,32
937,842	-0,78
938,088	-0,78
938,334	8,32
938,58	7,82
938,827	8,52
939,073	7,32
939,319	2,12
939,565	4,42
939,811	8,72
940,057	0,52
940,303	8,52
940,549	6,02
940,795	8,92
941,041	5,82
941,287	9,72
941,533	13,12
941,778	6,02
942,024	-2,38
942,27	2,82
942,516	1,02
942,762	9,12
943,008	6,02
943,254	16,72
943,5	1,82
943,746	11,62
943,992	8,12
944,237	6,72
944,483	4,72
944,729	11,92
944,975	9,42
945,221	13,62
945,467	9,22
945,712	6,22
945,958	3,22
946,204	4,62
946,45	3,52
946,695	6,12
946,941	9,82
947,187	12,02
947,433	2,22
947,678	7,82
947,924	-1,18
948,17	1,72
948,415	5,62
948,661	8,82
948,907	2,02
949,153	1,82
949,398	7,62
949,644	8,12
949,889	3,72
950,135	1,92
950,381	0,72
950,626	9,02
950,872	2,12
951,118	9,52
951,363	-0,78
951,609	6,82
951,854	4,82
952,1	-6,18
952,345	-3,08
952,591	10,02
952,836	9,42
953,082	1,12
953,327	8,32
953,573	2,82
953,818	9,52
954,064	6,92
954,309	9,22
954,555	7,12
954,8	4,52
955,046	-1,58
955,291	0,82
955,537	4,12
955,782	-5,58
956,027	0,72
956,273	5,52
956,518	9,22
956,764	9,32
957,009	2,42
957,254	4,42
957,5	2,82
957,745	4,42
957,99	5,52
958,236	-4,68
958,481	1,02
958,726	7,82
958,972	3,52
959,217	-0,68
959,462	15,32
959,707	10,02
959,953	6,52
960,198	3,92
960,443	3,82
960,688	4,42
960,934	17,02
961,179	3,32
961,424	-1,28
961,669	4,72
961,914	-3,18
962,16	-4,98
962,405	3,32
962,65	5,32
962,895	6,92
963,14	4,52
963,385	5,02
963,63	6,62
963,876	3,92
964,121	9,62
964,366	0,12
964,611	8,82
964,856	3,02
965,101	-1,58
965,346	3,82
965,591	4,62
965,836	-0,18
966,081	-3,58
966,326	4,52
966,571	5,32
966,816	4,82
967,061	3,12
967,306	7,72
967,551	6,12
967,796	-2,18
968,041	2,32
968,286	6,22
968,531	0,22
968,776	-4,88
969,021	-6,88
969,266	12,72
969,511	-1,38
969,755	-0,88
970	4,22
970,245	-0,38
970,49	11,52
970,735	8,42
970,98	1,22
971,225	-1,18
971,469	9,62
971,714	3,82
971,959	5,62
972,204	-1,28
972,449	-0,38
972,693	-1,78
972,938	-0,78
973,183	12,92
973,428	1,92
973,672	-0,68
973,917	2,12
974,162	7,22
974,407	9,62
974,651	1,92
974,896	0,42
975,141	11,42
975,385	6,42
975,63	4,22
975,875	-1,98
976,119	49,72
976,364	11,02
976,608	5,52
976,853	-1,38
977,098	2,82
977,342	-3,48
977,587	7,12
977,831	8,22
978,076	3,52
978,321	-2,28
978,565	-0,68
978,81	2,72
979,054	5,12
979,299	-0,38
979,543	-1,88
979,788	7,92
980,032	4,32
980,277	7,72
980,521	0,42
980,766	3,42
981,01	5,92
981,255	-0,78
981,499	4,92
981,743	0,02
981,988	-5,38
982,232	1,92
982,477	11,42
982,721	-0,18
982,965	-2,18
983,21	-1,78
983,454	2,12
983,699	5,72
983,943	4,92
984,187	14,42
984,432	6,32
984,676	6,52
984,92	7,32
985,165	11,62
985,409	0,12
985,653	2,32
985,897	-1,08
986,142	1,22
986,386	-0,68
986,63	3,22
986,874	-4,38
987,119	-2,58
987,363	0,02
987,607	-0,48
987,851	-2,28
988,095	13,22
988,34	-9,08
988,584	2,82
988,828	3,82
989,072	6,52
989,316	1,22
989,56	0,42
989,804	1,42
990,049	-0,88
990,293	0,42
990,537	-5,38
990,781	-3,68
991,025	-3,78
991,269	2,92
991,513	-3,98
991,757	6,62
992,001	-8,18
992,245	-1,68
992,489	2,02
992,733	-3,28
992,977	-5,58
993,221	-4,78
993,465	-8,38
993,709	-3,08
993,953	-1,38
994,197	-6,68
994,441	3,12
994,685	-0,28
994,929	3,22
995,173	2,72
995,417	-2,08
995,661	-2,78
995,904	-0,68
996,148	1,72
996,392	-6,68
996,636	-10,08
996,88	1,82
997,124	0,52
997,368	3,12
997,611	11,62
997,855	-0,68
998,099	4,62
998,343	-1,38
998,587	3,92
998,83	-0,68
999,074	-1,08
999,318	-2,68
999,562	-5,28
999,805	0,42
1000,049	-2,18
1000,293	0,62
1000,537	7,72
1000,78	3,52
1001,024	2,92
1001,268	-5,28
1001,511	5,02
1001,755	-6,28
1001,999	-0,98
1002,242	-3,78
1002,486	5,92
1002,73	2,22
1002,973	-2,28
1003,217	6,12
1003,46	0,52
1003,704	4,72
1003,948	1,92
1004,191	5,62
1004,435	3,72
1004,678	9,12
1004,922	1,22
1005,165	0,02
1005,409	3,52
1005,652	7,32
1005,896	6,82
1006,139	7,22
1006,383	12,02
1006,626	1,02
1006,87	0,52
1007,113	-3,28
1007,357	2,82
1007,6	6,02
1007,844	2,72
1008,087	0,72
1008,33	-1,68
1008,574	5,52
1008,817	1,02
1009,061	-9,98
1009,304	-1,38
1009,547	5,12
1009,791	9,42
1010,034	4,02
1010,277	13,92
1010,521	4,72
1010,764	-2,58
1011,007	-5,88
1011,251	-2,28
1011,494	-7,78
1011,737	-0,08
1011,98	-3,48
1012,224	2,72
1012,467	-1,78
1012,71	-2,08
1012,953	-1,28
1013,197	-1,38
1013,44	-8,58
1013,683	2,52
1013,926	-5,08
1014,169	-0,58
1014,413	-4,78
1014,656	-0,78
1014,899	-9,98
1015,142	4,02
1015,385	9,92
1015,628	11,02
1015,871	-3,08
1016,115	-4,58
1016,358	4,12
1016,601	-2,88
1016,844	1,82
1017,087	-5,88
1017,33	0,42
1017,573	1,42
1017,816	-2,48
1018,059	8,62
1018,302	3,12
1018,545	-5,58
1018,788	-4,08
1019,031	0,12
1019,274	-3,38
1019,517	-5,78
1019,76	-0,78
1020,003	-7,08
1020,246	-6,88
1020,489	1,22
1020,732	-2,08
1020,975	-6,98
1021,218	1,02
1021,461	-2,78
1021,703	0,82
1021,946	1,52
1022,189	-0,08
1022,432	-3,38
1022,675	16,32
1022,918	6,92
1023,161	-3,88
1023,403	3,92
1023,646	-0,48
1023,889	0,72
1024,132	6,42
1024,375	2,42
1024,617	-4,88
1024,86	-2,28
1025,103	0,22
1025,346	-12,08
1025,588	0,52
1025,831	-4,88
1026,074	2,62
1026,317	6,02
1026,559	2,12
1026,802	-0,78
1027,045	-0,08
1027,287	-0,88
1027,53	1,32
1027,773	5,72
1028,015	-0,58
1028,258	-0,98
1028,501	1,12
1028,743	0,12
1028,986	-0,78
1029,228	10,52
1029,471	-2,38
1029,714	-0,38
1029,956	-5,18
1030,199	4,32
1030,441	0,02
1030,684	0,42
1030,926	-2,98
1031,169	-1,88
1031,411	0,42
1031,654	4,32
1031,896	-0,38
1032,139	0,72
1032,381	4,12
1032,624	2,72
1032,866	-1,88
1033,109	1,62
1033,351	0,02
1033,594	0,82
1033,836	-4,48
1034,079	-7,58
1034,321	-2,88
1034,563	2,92
1034,806	-3,28
1035,048	0,52
1035,29	0,52
1035,533	-1,38
1035,775	-0,98
1036,018	7,52
1036,26	-7,38
1036,502	14,72
1036,744	-1,78
1036,987	-2,68
1037,229	-4,58
1037,471	-3,18
1037,714	14,72
1037,956	-0,48
1038,198	-3,28
1038,44	-1,88
1038,683	9,22
1038,925	0,32
1039,167	4,62
1039,409	-3,78
1039,651	-1,98
1039,894	2,12
1040,136	-2,18
1040,378	8,32
1040,62	1,92
1040,862	3,72
1041,104	3,52
1041,347	-0,68
1041,589	-3,28
1041,831	1,82
1042,073	0,82
1042,315	2,52
1042,557	0,32
1042,799	14,22
1043,041	5,42
1043,283	-0,28
1043,525	-1,98
1043,767	9,62
1044,009	3,22
1044,251	-3,88
1044,493	-8,18
1044,735	-7,28
1044,977	-5,98
1045,219	1,22
1045,461	-3,28
1045,703	2,82
1045,945	7,22
1046,187	-1,68
1046,429	1,62
1046,671	-9,78
1046,913	8,42
1047,155	0,72
1047,397	6,62
1047,639	3,82
1047,881	8,62
1048,122	4,32
1048,364	5,22
1048,606	4,22
1048,848	-0,78
1049,09	1,72
1049,332	-1,08
1049,573	-6,98
1049,815	0,42
1050,057	1,82
1050,299	-2,98
1050,541	5,62
1050,782	3,72
1051,024	-4,98
1051,266	1,02
1051,508	11,12
1051,749	6,12
1051,991	-1,68
1052,233	12,22
1052,474	-0,58
1052,716	-0,48
1052,958	-2,48
1053,199	8,62
1053,441	2,12
1053,683	-6,48
1053,924	0,12
1054,166	2,32
1054,408	-0,68
1054,649	-3,18
1054,891	-0,28
1055,132	-0,08
1055,374	-4,08
1055,616	-5,88
1055,857	-4,48
1056,099	1,22
1056,34	5,92
1056,582	-5,38
1056,823	1,22
1057,065	3,72
1057,306	1,12
1057,548	-0,48
1057,789	1,02
1058,031	2,92
1058,272	1,22
1058,514	4,62
1058,755	-0,78
1058,997	5,02
1059,238	8,42
1059,479	-3,58
1059,721	2,02
1059,962	0,82
1060,204	-0,38
1060,445	-4,68
1060,686	-5,28
1060,928	3,82
1061,169	6,02
1061,41	2,82
1061,652	2,32
1061,893	-1,48
1062,134	10,12
1062,376	-4,28
1062,617	-2,38
1062,858	3,82
1063,1	3,62
1063,341	-2,08
1063,582	2,82
1063,823	8,12
1064,065	-5,58
1064,306	-0,18
1064,547	6,42
1064,788	-3,08
1065,029	-2,98
1065,271	-1,18
1065,512	-6,78
1065,753	-2,28
1065,994	10,62
1066,235	-0,68
1066,476	-0,98
1066,718	-2,18
1066,959	11,72
1067,2	-5,28
1067,441	11,82
1067,682	3,12
1067,923	5,92
1068,164	-4,28
1068,405	-1,78
1068,646	-3,78
1068,887	3,42
1069,128	-1,08
1069,369	6,22
1069,61	3,92
1069,851	2,82
1070,092	-1,68
1070,333	-0,68
1070,574	-8,08
1070,815	-2,98
1071,056	2,12
1071,297	5,82
1071,538	5,22
1071,779	3,52
1072,02	0,22
1072,261	19,72
1072,502	-3,48
1072,743	-0,08
1072,984	1,12
1073,225	2,92
1073,466	3,02
1073,706	6,52
1073,947	-1,38
1074,188	4,72
1074,429	5,32
1074,67	12,22
1074,911	1,42
1075,151	-7,78
1075,392	-7,38
1075,633	-1,48
1075,874	-0,88
1076,114	2,52
1076,355	11,12
1076,596	5,22
1076,837	2,72
1077,077	-1,08
1077,318	-0,88
1077,559	9,22
1077,8	7,02
1078,04	4,22
1078,281	3,72
1078,522	0,82
1078,762	0,52
1079,003	5,52
1079,244	6,72
1079,484	4,22
1079,725	8,12
1079,965	2,92
1080,206	-0,18
1080,447	4,32
1080,687	-1,98
1080,928	5,02
1081,168	0,92
1081,409	1,22
1081,649	0,32
1081,89	-1,78
1082,131	4,52
1082,371	5,02
1082,612	3,72
1082,852	5,02
1083,093	9,82
1083,333	4,42
1083,573	-1,68
1083,814	10,22
1084,054	11,22
1084,295	24,32
1084,535	10,82
1084,776	2,22
1085,016	2,52
1085,257	-0,08
1085,497	15,72
1085,737	21,12
1085,978	3,22
1086,218	9,52
1086,458	-1,88
1086,699	4,72
1086,939	0,42
1087,179	5,02
1087,42	9,42
1087,66	0,72
1087,9	2,42
1088,141	4,12
1088,381	4,32
1088,621	3,62
1088,861	2,92
1089,102	7,62
1089,342	3,12
1089,582	-5,38
1089,822	7,22
1090,063	3,02
1090,303	7,22
1090,543	2,42
1090,783	-0,38
1091,023	2,82
1091,263	0,32
1091,504	-4,48
1091,744	2,42
1091,984	9,12
1092,224	8,72
1092,464	3,52
1092,704	0,62
1092,944	7,12
1093,184	-0,68
1093,425	6,12
1093,665	0,52
1093,905	1,42
1094,145	3,42
1094,385	6,92
1094,625	2,02
1094,865	5,22
1095,105	4,82
1095,345	3,12
1095,585	-3,28
1095,825	-0,68
1096,065	7,92
1096,305	-4,58
1096,545	7,22
1096,785	1,72
1097,025	6,72
1097,265	-5,98
1097,504	0,22
1097,744	2,12
1097,984	3,02
1098,224	12,02
1098,464	0,52
1098,704	17,02
1098,944	7,72
1099,184	-0,28
1099,423	2,42
1099,663	3,82
1099,903	-2,78
1100,143	-2,88
1100,383	2,02
1100,622	8,02
1100,862	4,62
1101,102	1,82
1101,342	4,52
1101,582	4,22
1101,821	-0,28
1102,061	4,32
1102,301	8,02
1102,54	12,72
1102,78	7,02
1103,02	0,72
1103,26	1,22
1103,499	2,32
1103,739	9,22
1103,979	8,42
1104,218	13,02
1104,458	5,02
1104,697	2,82
1104,937	6,72
1105,177	10,82
1105,416	0,02
1105,656	4,02
1105,896	4,42
1106,135	-2,88
1106,375	-1,88
1106,614	7,52
1106,854	9,22
1107,093	7,32
1107,333	-0,78
1107,572	-2,18
1107,812	7,52
1108,051	12,22
1108,291	5,02
1108,53	6,32
1108,77	10,52
1109,009	10,92
1109,249	6,72
1109,488	4,92
1109,728	3,72
1109,967	0,02
1110,206	-1,38
1110,446	7,42
1110,685	0,42
1110,925	8,82
1111,164	10,92
1111,403	11,72
1111,643	12,62
1111,882	-1,38
1112,121	-0,58
1112,361	7,52
1112,6	-1,28
1112,839	7,22
1113,079	2,02
1113,318	8,12
1113,557	8,22
1113,796	8,82
1114,036	6,42
1114,275	-7,48
1114,514	8,82
1114,753	9,92
1114,993	9,82
1115,232	-3,98
1115,471	-3,18
1115,71	8,92
1115,949	9,12
1116,188	2,32
1116,428	13,52
1116,667	7,42
1116,906	2,42
1117,145	17,82
1117,384	11,42
1117,623	7,42
1117,862	7,22
1118,101	6,82
1118,341	11,62
1118,58	14,02
1118,819	6,12
1119,058	0,62
1119,297	4,22
1119,536	9,02
1119,775	12,92
1120,014	0,32
1120,253	-1,68
1120,492	0,32
1120,731	7,42
1120,97	5,22
1121,209	8,32
1121,448	10,32
1121,687	2,82
1121,926	7,02
1122,165	-0,18
1122,404	5,52
1122,642	8,92
1122,881	-1,18
1123,12	4,72
1123,359	10,82
1123,598	10,72
1123,837	9,42
1124,076	1,32
1124,315	6,02
1124,553	6,02
1124,792	-2,18
1125,031	7,92
1125,27	5,32
1125,509	3,82
1125,747	10,12
1125,986	12,52
1126,225	5,12
