Data from HR4C34221__0__21-20-43-732.txt Node

Date: Fri Apr 11 21:20:43 MSK 2025
User: 123
Spectrometer: HR4C3422
Trigger mode: 4
Integration Time (sec): 8,000000E0
Scans to average: 11
Electric dark correction enabled: true
Nonlinearity correction enabled: false
Boxcar width: 0
XAxis mode: Wavelengths
Number of Pixels in Spectrum: 3648
>>>>>Begin Spectral Data<<<<<
195,326	-559,06
195,597	-559,06
195,868	-559,06
196,139	-535,97
196,409	269,58
196,68	110,22
196,951	-177,87
197,221	-164,06
197,492	75,03
197,762	258,13
198,033	-10,87
198,304	-121,15
198,574	54,03
198,845	92,13
199,116	-212,97
199,386	-152,87
199,657	53,49
199,927	196,76
200,198	-62,15
200,468	131,13
200,739	238,4
201,009	46,67
201,28	-15,87
201,551	-178,15
201,821	246,22
202,092	240,31
202,362	96,85
202,633	-188,15
202,903	207,49
203,174	91,31
203,444	-2,97
203,714	212,03
203,985	53,4
204,255	244,31
204,526	-86,33
204,796	-56,6
205,067	73,31
205,337	150,31
205,607	-30,87
205,878	102,58
206,148	114,4
206,419	167,67
206,689	-150,87
206,959	2,13
207,23	116,85
207,5	311,22
207,77	561,76
208,041	-55,87
208,311	153,67
208,581	108,76
208,852	-73,15
209,122	-24,87
209,392	9,58
209,663	224,49
209,933	162,76
210,203	116,13
210,473	161,76
210,744	69,13
211,014	-78,69
211,284	39,4
211,554	267,4
211,825	265,85
212,095	-98,69
212,365	4,4
212,635	51,13
212,905	108,49
213,176	92,58
213,446	123,94
213,716	72,4
213,986	235,13
214,256	-89,42
214,526	-144,78
214,797	44,31
215,067	27,94
215,337	-27,87
215,607	127,03
215,877	125,03
216,147	88,67
216,417	-50,69
216,687	78,85
216,957	167,85
217,227	38,94
217,497	55,31
217,767	-19,97
218,038	343,58
218,308	383,13
218,578	118,49
218,848	-144,6
219,118	-29,87
219,388	35,67
219,658	-136,78
219,928	-9,15
220,198	162,67
220,468	279,76
220,737	-114,78
221,007	-82,15
221,277	153,76
221,547	28,85
221,817	-67,42
222,087	-177,6
222,357	231,49
222,627	160,76
222,897	-40,51
223,167	-38,24
223,437	8,31
223,707	241,94
223,976	71,49
224,246	71,03
224,516	-18,6
224,786	151,76
225,056	53,94
225,326	-106,97
225,595	76,13
225,865	231,94
226,135	-75,06
226,405	-157,78
226,675	423,85
226,944	382,31
227,214	-44,69
227,484	-51,78
227,754	-7,33
228,023	323,03
228,293	-199,6
228,563	-76,6
228,833	521,22
229,102	303,03
229,372	-9,51
229,642	289,03
229,911	177,22
230,181	12,4
230,451	-173,06
230,72	-85,6
230,99	253,13
231,26	152,58
231,529	25,76
231,799	-10,15
232,069	107,13
232,338	236,13
232,608	36,49
232,877	-50,24
233,147	15,13
233,417	142,4
233,686	152,67
233,956	98,85
234,225	-44,51
234,495	-11,51
234,764	-35,97
235,034	-77,6
235,304	29,13
235,573	71,76
235,843	-202,24
236,112	-187,33
236,382	-23,15
236,651	376,22
236,921	-71,15
237,19	-81,78
237,46	-70,24
237,729	-36,15
237,998	-56,24
238,268	-77,06
238,537	23,49
238,807	233,94
239,076	-64,97
239,346	73,58
239,615	87,03
239,884	244,85
240,154	53,49
240,423	-105,6
240,693	9,49
240,962	10,67
241,231	-126,06
241,501	-140,15
241,77	19,4
242,039	-1,15
242,309	-82,87
242,578	-191,69
242,847	65,76
243,116	69,31
243,386	-48,24
243,655	-1,97
243,924	232,85
244,194	71,85
244,463	-0,15
244,732	-101,15
245,001	68,13
245,271	78,31
245,54	-37,87
245,809	-59,97
246,078	38,31
246,347	100,67
246,617	-186,78
246,886	-201,97
247,155	160,03
247,424	266,67
247,693	-83,15
247,963	-27,51
248,232	103,31
248,501	193,85
248,77	-184,87
249,039	-142,51
249,308	-23,97
249,577	41,67
249,846	-199,51
250,115	-165,6
250,385	222,94
250,654	3,76
250,923	69,49
251,192	-59,6
251,461	31,49
251,73	132,31
251,999	-182,69
252,268	-170,06
252,537	-15,33
252,806	276,22
253,075	10,94
253,344	0,94
253,613	158,03
253,882	54,03
254,151	-190,42
254,42	143,49
254,689	-47,78
254,958	52,31
255,227	-127,24
255,496	-236,78
255,765	181,31
256,033	70,22
256,302	-135,97
256,571	-9,6
256,84	9,03
257,109	110,49
257,378	-233,51
257,647	-190,51
257,916	55,49
258,184	-28,69
258,453	131,22
258,722	56,03
258,991	-66,97
259,26	81,76
259,529	-202,24
259,797	-58,33
260,066	272,13
260,335	138,76
260,604	-108,69
260,873	-17,33
261,141	-2,15
261,41	164,22
261,679	3,49
261,948	-119,33
262,216	-75,33
262,485	117,85
262,754	-132,24
263,022	-144,6
263,291	244,22
263,56	-52,69
263,829	-123,15
264,097	157,4
264,366	88,58
264,635	-46,6
264,903	-208,42
265,172	-144,24
265,44	-66,42
265,709	98,13
265,978	-235,69
266,246	135,67
266,515	138,4
266,784	181,49
267,052	-122,15
267,321	-108,06
267,589	126,76
267,858	101,49
268,126	-226,42
268,395	-122,15
268,663	-25,97
268,932	164,13
269,201	-197,69
269,469	-205,51
269,738	55,22
270,006	84,58
270,275	57,76
270,543	-67,06
270,811	148,4
271,08	-22,06
271,348	12,13
271,617	-65,15
271,885	-29,42
272,154	-74,42
272,422	-123,69
272,691	-148,69
272,959	186,13
273,227	204,85
273,496	-61,42
273,764	-108,24
274,033	194,94
274,301	138,94
274,569	-215,15
274,838	-231,6
275,106	295,4
275,374	294,22
275,643	-147,87
275,911	-175,6
276,179	47,4
276,448	150,13
276,716	-180,78
276,984	-141,33
277,252	81,49
277,521	249,94
277,789	-88,42
278,057	-264,06
278,325	-72,15
278,594	-43,42
278,862	48,58
279,13	-41,87
279,398	-5,06
279,667	223,13
279,935	308,94
280,203	71,85
280,471	511,58
280,739	154,13
281,008	-138,78
281,276	25,31
281,544	200,31
281,812	-24,42
282,08	-106,24
282,348	-103,06
282,616	250,76
282,884	224,31
283,153	-170,15
283,421	272,94
283,689	45,85
283,957	60,58
284,225	-117,24
284,493	1,03
284,761	233,58
285,029	170,67
285,297	-79,78
285,565	-183,24
285,833	36,13
286,101	-19,6
286,369	-289,42
286,637	-162,24
286,905	-20,15
287,173	74,49
287,441	-179,78
287,709	-75,24
287,977	63,67
288,245	-4,69
288,513	-145,24
288,781	-121,6
289,049	310,58
289,317	307,76
289,585	-139,97
289,853	-228,33
290,12	159,13
290,388	-58,78
290,656	-69,97
290,924	278,03
291,192	171,94
291,46	57,49
291,728	-153,87
291,996	-7,51
292,263	47,31
292,531	174,49
292,799	-160,24
293,067	-223,69
293,335	241,94
293,602	-59,51
293,87	65,4
294,138	139,67
294,406	-11,33
294,673	-33,33
294,941	95,13
295,209	-38,97
295,477	145,76
295,744	186,4
296,012	86,67
296,28	-190,97
296,548	-110,97
296,815	124,58
297,083	-2,51
297,351	5,03
297,618	-18,78
297,886	-17,06
298,154	-184,51
298,421	-101,87
298,689	-32,15
298,956	177,4
299,224	13,22
299,492	-222,78
299,759	31,4
300,027	29,31
300,294	193,58
300,562	67,94
300,83	107,31
301,097	120,31
301,365	-211,42
301,632	-189,33
301,9	97,58
302,167	193,03
302,435	89,03
302,702	-67,06
302,97	64,58
303,237	182,67
303,505	-16,42
303,772	121,22
304,04	-25,97
304,307	-91,06
304,575	-192,78
304,842	-182,87
305,11	200,67
305,377	29,58
305,645	139,76
305,912	-190,33
306,179	-31,78
306,447	1,76
306,714	-64,51
306,982	-78,69
307,249	42,76
307,516	133,67
307,784	-224,42
308,051	-212,51
308,318	119,94
308,586	261,13
308,853	-40,33
309,12	-196,78
309,388	64,94
309,655	344,58
309,922	49,94
310,19	-15,15
310,457	139,03
310,724	186,76
310,991	-121,51
311,259	88,49
311,526	96,76
311,793	20,03
312,06	22,31
312,328	-55,15
312,595	178,03
312,862	-32,15
313,129	-206,06
313,396	-87,69
313,664	132,03
313,931	48,22
314,198	43,85
314,465	-251,78
314,732	-69,78
314,999	296,67
315,266	-4,69
315,534	-97,42
315,801	165,49
316,068	-88,06
316,335	-114,06
316,602	-114,24
316,869	-35,69
317,136	156,85
317,403	-88,33
317,67	-23,42
317,937	-38,06
318,204	248,94
318,471	-99,15
318,738	-127,33
319,005	150,76
319,272	38,31
319,539	94,03
319,806	-79,06
320,073	-88,6
320,34	190,22
320,607	-31,78
320,874	89,49
321,141	97,22
321,408	246,58
321,675	-122,78
321,942	-34,87
322,209	7,58
322,476	-72,6
322,743	38,4
323,01	-110,6
323,277	-108,87
323,544	-100,33
323,81	14,85
324,077	-43,69
324,344	198,31
324,611	222,22
324,878	-98,78
325,145	87,85
325,412	249,76
325,678	-71,69
325,945	-211,6
326,212	-208,78
326,479	56,31
326,746	-43,33
327,012	-134,97
327,279	-160,33
327,546	39,4
327,813	22,58
328,079	-70,06
328,346	-144,42
328,613	318,67
328,88	-4,42
329,146	21,4
329,413	60,49
329,68	-107,78
329,946	29,49
330,213	-116,42
330,48	28,31
330,746	86,85
331,013	-132,06
331,28	-137,69
331,546	283,67
331,813	-49,78
332,08	57,76
332,346	-229,24
332,613	-137,15
332,879	-89,06
333,146	100,03
333,413	-68,51
333,679	162,94
333,946	141,76
334,212	50,85
334,479	34,85
334,745	98,22
335,012	-19,06
335,278	-81,24
335,545	286,67
335,811	-155,97
336,078	16,67
336,344	-61,87
336,611	25,22
336,877	56,76
337,144	74,67
337,41	27,4
337,677	266,13
337,943	248,03
338,21	-85,06
338,476	-113,87
338,742	593,49
339,009	-95,06
339,275	-57,6
339,542	38,31
339,808	-114,33
340,074	-180,6
340,341	-92,24
340,607	-107,69
340,873	-214,24
341,14	21,31
341,406	26,22
341,672	-32,33
341,939	-285,42
342,205	-55,24
342,471	-115,51
342,738	244,22
343,004	-111,24
343,27	-166,06
343,537	241,03
343,803	40,76
344,069	-128,69
344,335	-252,87
344,602	-30,87
344,868	-119,97
345,134	-50,33
345,4	53,58
345,666	259,85
345,933	87,13
346,199	-233,97
346,465	-180,33
346,731	-7,69
346,997	-33,06
347,263	71,94
347,53	-62,69
347,796	-46,24
348,062	-33,78
348,328	-19,87
348,594	-138,51
348,86	2,13
349,126	11,67
349,392	-90,24
349,659	-95,78
349,925	-67,6
350,191	-59,06
350,457	-125,87
350,723	-112,51
350,989	-1,78
351,255	6,76
351,521	-127,6
351,787	-85,78
352,053	-75,42
352,319	117,31
352,585	-46,51
352,851	-210,06
353,117	-143,6
353,383	16,76
353,649	-187,33
353,915	-213,69
354,181	246,03
354,447	120,85
354,713	-210,33
354,978	-217,6
355,244	113,67
355,51	-81,69
355,776	-153,6
356,042	-25,69
356,308	11,4
356,574	-26,15
356,84	84,76
357,106	-181,06
357,371	-26,69
357,637	333,13
357,903	38,03
358,169	-12,15
358,435	-9,15
358,701	96,4
358,966	-97,24
359,232	145,22
359,498	-122,51
359,764	-59,15
360,029	-149,42
360,295	-164,33
360,561	-150,78
360,827	206,4
361,092	-29,97
361,358	-144,33
361,624	2,58
361,89	-136,6
362,155	-160,33
362,421	-104,24
362,687	-84,97
362,952	32,22
363,218	-14,97
363,484	-121,06
363,749	58,4
364,015	199,13
364,281	81,49
364,546	-167,51
364,812	-116,42
365,077	-118,33
365,343	-156,33
365,609	-132,24
365,874	-119,42
366,14	-93,69
366,405	-239,06
366,671	51,76
366,936	-9,33
367,202	-65,97
367,467	19,13
367,733	-40,97
367,999	127,13
368,264	164,85
368,53	140,76
368,795	-17,97
369,061	-123,69
369,326	-24,87
369,591	-142,87
369,857	-76,33
370,122	-143,78
370,388	-104,51
370,653	19,13
370,919	-141,97
371,184	-212,87
371,45	190,4
371,715	-38,24
371,98	-145,69
372,246	-47,42
372,511	119,49
372,776	-25,33
373,042	1,76
373,307	-119,6
373,573	-72,24
373,838	22,13
374,103	208,13
374,369	158,94
374,634	-47,42
374,899	-204,42
375,164	-96,69
375,43	184,58
375,695	-110,87
375,96	-163,69
376,226	-115,33
376,491	-149,33
376,756	-82,6
377,021	-99,97
377,286	-203,97
377,552	194,76
377,817	108,03
378,082	-0,06
378,347	-75,87
378,613	7,94
378,878	82,76
379,143	-166,15
379,408	-233,51
379,673	74,4
379,938	74,67
380,203	-146,78
380,469	-69,87
380,734	-28,97
380,999	195,76
381,264	12,67
381,529	64,76
381,794	-71,06
382,059	154,4
382,324	-196,15
382,589	19,94
382,854	37,49
383,119	118,22
383,385	-120,78
383,65	-98,42
383,915	387,67
384,18	80,76
384,445	-126,24
384,71	38,03
384,975	-43,97
385,24	53,03
385,505	40,76
385,77	-109,78
386,034	-78,51
386,299	233,58
386,564	-116,33
386,829	-198,24
387,094	68,94
387,359	139,13
387,624	37,94
387,889	-36,78
388,154	-120,15
388,419	-136,42
388,684	-51,6
388,949	-57,69
389,213	-22,42
389,478	-61,15
389,743	146,31
390,008	-92,33
390,273	72,67
390,538	76,58
390,802	326,85
391,067	-160,97
391,332	-34,33
391,597	14,49
391,862	-165,42
392,126	-174,69
392,391	86,85
392,656	-48,51
392,921	21,49
393,185	-150,42
393,45	94,03
393,715	275,13
393,979	-149,15
394,244	-169,51
394,509	-157,51
394,774	327,85
395,038	34,67
395,303	-71,15
395,568	49,49
395,832	401,03
396,097	-102,33
396,361	160,4
396,626	75,31
396,891	1,76
397,155	8,13
397,42	-136,33
397,685	-27,06
397,949	120,31
398,214	-102,06
398,478	-174,42
398,743	-66,15
399,007	310,4
399,272	261,94
399,536	-60,15
399,801	78,94
400,066	-43,97
400,33	-213,51
400,595	-237,51
400,859	-65,24
401,124	237,49
401,388	76,4
401,652	-19,24
401,917	-76,06
402,181	-81,6
402,446	-145,15
402,71	-149,51
402,975	-121,42
403,239	121,58
403,504	49,94
403,768	-98,78
404,032	102,03
404,297	67,67
404,561	-147,87
404,826	-49,51
405,09	32,22
405,354	-115,51
405,619	-52,24
405,883	46,67
406,147	47,13
406,412	18,31
406,676	-226,6
406,94	-162,69
407,205	38,22
407,469	43,67
407,733	-58,69
407,997	101,4
408,262	-4,97
408,526	-41,97
408,79	-75,6
409,054	-199,87
409,319	-28,78
409,583	61,13
409,847	-116,33
410,111	18,31
410,375	52,67
410,64	81,13
410,904	3,49
411,168	-202,15
411,432	143,13
411,696	-73,78
411,96	-39,15
412,225	366,58
412,489	207,03
412,753	103,22
413,017	-178,69
413,281	-58,97
413,545	93,85
413,809	-68,69
414,073	-92,69
414,337	-26,78
414,602	-88,24
414,866	20,13
415,13	-80,33
415,394	78,85
415,658	105,4
415,922	218,94
416,186	-117,97
416,45	12,67
416,714	162,13
416,978	52,49
417,242	-54,06
417,506	-73,06
417,77	112,49
418,034	204,58
418,298	14,67
418,562	269,94
418,825	79,31
419,089	203,22
419,353	-24,51
419,617	30,22
419,881	34,22
420,145	-64,78
420,409	-150,24
420,673	210,31
420,937	106,58
421,2	-31,69
421,464	-113,69
421,728	-176,78
421,992	246,67
422,256	312,22
422,52	-5,15
422,783	203,31
423,047	185,31
423,311	344,58
423,575	35,85
423,839	93,85
424,102	-9,6
424,366	223,22
424,63	35,22
424,894	47,58
425,157	171,49
425,421	196,94
425,685	4,4
425,949	133,03
426,212	183,03
426,476	316,4
426,74	57,94
427,003	227,4
427,267	403,03
427,531	624,4
427,794	217,58
428,058	302,85
428,322	315,03
428,585	394,03
428,849	399,58
429,112	464,03
429,376	369,03
429,64	537,22
429,903	415,31
430,167	491,94
430,43	519,85
430,694	763,76
430,957	507,67
431,221	395,85
431,485	547,67
431,748	899,31
432,012	638,13
432,275	983,85
432,539	1026,58
432,802	1151,85
433,066	641,31
433,329	630,58
433,593	916,31
433,856	1026,49
434,119	1018,58
434,383	1279,22
434,646	1003,22
434,91	1061,4
435,173	1017,49
435,437	1185,4
435,7	1298,31
435,963	1217,03
436,227	1226,85
436,49	1134,67
436,753	1390,4
437,017	1337,31
437,28	1375,67
437,544	1632,58
437,807	1594,03
438,07	1574,76
438,334	1525,03
438,597	1580,49
438,86	1829,76
439,123	1812,03
439,387	2090,76
439,65	1863,49
439,913	2178,85
440,177	2069,94
440,44	2327,22
440,703	2371,94
440,966	2321,85
441,229	2532,31
441,493	2437,31
441,756	2677,22
442,019	2753,85
442,282	2881,31
442,545	3146,4
442,809	3316,22
443,072	3423,58
443,335	3462,76
443,598	3506,13
443,861	3506,58
444,124	3822,94
444,388	4160,49
444,651	4093,67
444,914	4213,31
445,177	4478,4
445,44	4673,31
445,703	4581,22
445,966	5000,13
446,229	5421,94
446,492	5344,49
446,755	5687,13
447,018	5858,13
447,281	6117,4
447,544	6442,67
447,807	6546,4
448,07	6782,22
448,333	7046,76
448,596	7501,94
448,859	7939,94
449,122	8010,22
449,385	8036,49
449,648	8725,03
449,911	8946,67
450,174	9101,13
450,437	9345,22
450,7	9624,67
450,963	9547,76
451,226	9970,94
451,489	10214,76
451,752	10948,03
452,015	10879,85
452,277	10940,49
452,54	11291,85
452,803	11490,4
453,066	11405,03
453,329	11833,03
453,592	12131,76
453,855	11904,76
454,117	12320,03
454,38	12320,4
454,643	12736,58
454,906	12497,58
455,169	12265,22
455,431	12373,31
455,694	12745,49
455,957	12628,58
456,22	13048,76
456,482	12476,22
456,745	12396,13
457,008	12791,22
457,271	12660,4
457,533	12880,03
457,796	12620,85
458,059	12356,67
458,321	11842,49
458,584	11776,94
458,847	11917,58
459,109	11443,31
459,372	11760,58
459,635	11226,49
459,897	11420,94
460,16	11300,76
460,423	11421,58
460,685	10639,49
460,948	10481,94
461,21	10334,94
461,473	10019,85
461,735	9574,31
461,998	9731,76
462,261	9579,31
462,523	9429,31
462,786	9268,85
463,048	9192,94
463,311	9013,4
463,573	8814,03
463,836	8529,85
464,098	8365,22
464,361	8259,13
464,623	7823,03
464,886	8011,22
465,148	8195,67
465,411	8076,03
465,673	8042,22
465,936	7881,49
466,198	7734,85
466,46	7667,85
466,723	7273,85
466,985	7407,03
467,248	7301,03
467,51	7164,94
467,772	7416,03
468,035	7447,31
468,297	7143,13
468,56	7014,85
468,822	6793,4
469,084	6713,67
469,347	6708,13
469,609	6767,49
469,871	6767,13
470,133	6583,67
470,396	6782,94
470,658	6732,67
470,92	6442,76
471,183	6564,67
471,445	6375,67
471,707	6366,94
471,969	6113,31
472,232	6078,22
472,494	6356,31
472,756	6277,03
473,018	5963,94
473,281	6129,76
473,543	6235,49
473,805	5910,85
474,067	5692,22
474,329	5622,03
474,591	5780,22
474,854	5846,94
475,116	5542,76
475,378	5595,13
475,64	5566,49
475,902	5632,03
476,164	5219,58
476,426	5119,13
476,688	5088,49
476,951	5178,31
477,213	4964,03
477,475	4845,67
477,737	4792,13
477,999	4861,03
478,261	4516,94
478,523	4482,76
478,785	4796,13
479,047	4882,85
479,309	4630,58
479,571	4468,22
479,833	4374,76
480,095	4277,4
480,357	4197,31
480,619	4166,4
480,881	4213,4
481,143	4162,76
481,405	3917,4
481,667	3959,13
481,929	4030,22
482,191	4003,4
482,452	3724,31
482,714	3729,31
482,976	3888,76
483,238	4004,58
483,5	3749,67
483,762	3837,67
484,024	3947,31
484,286	3774,4
484,547	3727,31
484,809	3916,31
485,071	4032,67
485,333	3686,94
485,595	3363,4
485,857	3572,03
486,118	3476,85
486,38	3653,03
486,642	3409,58
486,904	3439,76
487,165	3529,13
487,427	3466,85
487,689	3559,31
487,951	3549,76
488,212	3383,76
488,474	3447,22
488,736	3264,85
488,998	3553,94
489,259	3656,13
489,521	3414,22
489,783	3268,03
490,044	3413,22
490,306	3536,03
490,568	3465,4
490,829	3399,94
491,091	3085,22
491,353	3443,03
491,614	3312,58
491,876	3163,22
492,137	3240,76
492,399	3291,03
492,661	3334,85
492,922	3090,76
493,184	2976,94
493,445	3315,22
493,707	3498,76
493,968	3283,22
494,23	3262,22
494,491	3856,85
494,753	3383,67
495,014	3136,31
495,276	3116,94
495,537	3293,49
495,799	3249,85
496,06	3357,58
496,322	3103,49
496,583	3260,22
496,845	3293,03
497,106	3234,49
497,368	3145,31
497,629	3348,67
497,89	3460,49
498,152	3496,58
498,413	3371,49
498,675	3479,03
498,936	3457,76
499,197	3248,94
499,459	3323,31
499,72	3458,67
499,981	3577,03
500,243	3814,03
500,504	3448,13
500,765	3522,4
501,027	3493,22
501,288	3547,67
501,549	3663,58
501,811	3544,31
502,072	3685,22
502,333	4338,4
502,594	3724,4
502,856	3717,4
503,117	3972,94
503,378	3771,85
503,639	3849,49
503,901	3934,03
504,162	3859,31
504,423	3891,31
504,684	3949,76
504,945	3999,13
505,207	4069,67
505,468	3889,31
505,729	3920,76
505,99	4227,67
506,251	4185,85
506,512	4170,94
506,774	4203,76
507,035	4322,49
507,296	4451,85
507,557	4344,58
507,818	4254,94
508,079	4508,03
508,34	4455,22
508,601	4535,31
508,862	4497,22
509,123	4615,22
509,384	4574,22
509,645	4627,94
509,906	4622,67
510,167	4767,67
510,428	4798,13
510,689	4807,85
510,95	4669,31
511,211	5025,58
511,472	4864,13
511,733	4889,49
511,994	4859,58
512,255	5194,67
512,516	5087,67
512,777	4953,76
513,038	5111,31
513,299	5140,4
513,56	5281,22
513,821	5218,67
514,082	5276,76
514,343	5305,67
514,603	5453,76
514,864	5401,76
515,125	5304,76
515,386	5836,94
515,647	5677,22
515,908	5736,03
516,169	5748,85
516,429	5706,76
516,69	5639,13
516,951	5680,67
517,212	5710,22
517,473	5828,49
517,733	5827,13
517,994	5823,03
518,255	5852,85
518,516	5941,4
518,776	5945,4
519,037	5915,94
519,298	5869,67
519,559	6063,22
519,819	6216,76
520,08	6327,58
520,341	6028,4
520,601	6297,49
520,862	6460,22
521,123	6173,03
521,383	6245,13
521,644	6370,03
521,905	6563,03
522,165	6638,94
522,426	6352,58
522,686	6556,31
522,947	6698,4
523,208	6513,85
523,468	6508,31
523,729	7026,31
523,989	7004,03
524,25	6933,67
524,51	6770,58
524,771	6771,94
525,032	6922,94
525,292	7147,22
525,553	6895,67
525,813	6997,58
526,074	6948,67
526,334	6929,58
526,595	6881,94
526,855	7181,67
527,116	7155,13
527,376	7055,03
527,636	6996,13
527,897	7381,31
528,157	7308,4
528,418	7227,49
528,678	7193,76
528,939	7461,76
529,199	7376,85
529,459	7415,31
529,72	7429,67
529,98	7680,49
530,24	7505,4
530,501	7549,03
530,761	7447,76
531,022	7590,94
531,282	7613,94
531,542	7473,94
531,803	7538,31
532,063	7681,67
532,323	7761,85
532,583	7653,94
532,844	7664,22
533,104	7864,22
533,364	7863,85
533,624	7953,49
533,885	7880,49
534,145	7847,4
534,405	7880,67
534,665	7883,94
534,926	7796,4
535,186	7946,13
535,446	8122,03
535,706	7900,13
535,966	7881,49
536,227	7917,13
536,487	7967,67
536,747	7944,76
537,007	8072,13
537,267	8280,58
537,527	8216,03
537,787	8073,76
538,048	8060,31
538,308	8242,22
538,568	8267,22
538,828	8103,76
539,088	8458,85
539,348	8384,67
539,608	8379,76
539,868	8244,22
540,128	8285,31
540,388	8459,67
540,648	8536,76
540,908	8155,03
541,168	8193,13
541,428	8356,03
541,688	8367,85
541,948	8239,22
542,208	8403,58
542,468	8485,58
542,728	8473,76
542,988	8735,49
543,248	8363,85
543,508	8761,94
543,768	8461,13
544,028	8279,94
544,288	8333,85
544,548	8524,76
544,807	8566,22
545,067	8410,67
545,327	8364,76
545,587	8663,13
545,847	8734,22
546,107	8269,85
546,367	8420,85
546,626	8474,85
546,886	8765,31
547,146	8557,49
547,406	8310,03
547,666	8439,49
547,925	8640,22
548,185	8333,85
548,445	8260,4
548,705	8383,4
548,965	8416,13
549,224	8426,67
549,484	8581,49
549,744	8533,85
550,003	8549,49
550,263	8288,67
550,523	8177,67
550,783	8583,31
551,042	8365,31
551,302	8210,94
551,562	8238,22
551,821	8210,22
552,081	8281,31
552,341	8144,67
552,6	8177,13
552,86	8158,94
553,119	8302,03
553,379	8015,03
553,639	8272,31
553,898	8159,49
554,158	8260,67
554,417	8283,03
554,677	8083,13
554,936	8204,94
555,196	8226,94
555,456	7931,85
555,715	7929,31
555,975	8159,49
556,234	8151,03
556,494	7861,76
556,753	8029,58
557,013	8127,49
557,272	8034,31
557,532	7811,94
557,791	7788,49
558,051	8026,85
558,31	7952,76
558,569	7830,94
558,829	7645,49
559,088	7798,31
559,348	7745,58
559,607	7749,31
559,866	7891,31
560,126	7673,4
560,385	7753,22
560,645	7522,22
560,904	7602,85
561,163	7897,67
561,423	7712,49
561,682	7466,94
561,941	7458,13
562,201	7558,76
562,46	7505,94
562,719	7273,22
562,979	7429,76
563,238	7326,22
563,497	7609,94
563,756	7270,76
564,016	7373,4
564,275	7242,4
564,534	7306,22
564,793	7088,4
565,053	7124,22
565,312	7211,31
565,571	7171,67
565,83	7073,67
566,089	6896,03
566,349	7013,58
566,608	7133,4
566,867	6955,31
567,126	7204,4
567,385	6976,49
567,644	6895,22
567,903	6845,03
568,163	6744,31
568,422	6944,03
568,681	6943,85
568,94	7065,4
569,199	6794,76
569,458	6720,13
569,717	6847,67
569,976	6544,31
570,235	6454,03
570,494	6659,03
570,753	6466,31
571,012	6368,31
571,271	6329,67
571,53	6381,22
571,789	6539,94
572,048	6273,03
572,307	6365,58
572,566	6402,94
572,825	6314,4
573,084	6416,4
573,343	6455,58
573,602	6185,49
573,861	6256,03
574,12	6148,94
574,379	5983,85
574,638	6060,85
574,897	6129,49
575,156	6170,31
575,414	6037,58
575,673	6103,94
575,932	6067,94
576,191	5928,4
576,45	5974,94
576,709	5837,58
576,968	6101,49
577,226	5716,85
577,485	5973,67
577,744	6252,49
578,003	5936,31
578,262	5568,67
578,52	5662,4
578,779	5877,85
579,038	5799,31
579,297	5755,03
579,555	5697,13
579,814	5657,76
580,073	5561,31
580,332	5411,85
580,59	5418,85
580,849	5493,85
581,108	5494,13
581,366	5303,13
581,625	5288,03
581,884	5518,49
582,142	5596,31
582,401	5479,94
582,66	5192,31
582,918	5411,58
583,177	5308,22
583,436	5397,49
583,694	5403,58
583,953	5342,49
584,211	5213,76
584,47	5193,58
584,728	5085,22
584,987	5221,85
585,246	5222,49
585,504	5093,67
585,763	5113,49
586,021	5219,4
586,28	5135,67
586,538	5024,4
586,797	5023,85
587,055	4968,4
587,314	5075,94
587,572	5059,49
587,831	5147,31
588,089	5072,4
588,348	4970,58
588,606	4924,31
588,864	4768,49
589,123	4974,67
589,381	5026,85
589,64	4954,31
589,898	4947,49
590,157	5127,13
590,415	4856,76
590,673	4724,85
590,932	4972,58
591,19	4812,22
591,448	4983,85
591,707	5076,49
591,965	4802,94
592,223	4905,13
592,482	4846,13
592,74	4851,22
592,998	4733,03
593,257	4767,22
593,515	4875,13
593,773	4629,31
594,031	4789,58
594,29	4658,13
594,548	4689,4
594,806	4508,76
595,064	4618,85
595,323	4655,58
595,581	4648,49
595,839	4661,76
596,097	4837,03
596,355	4968,58
596,613	4808,49
596,872	4650,49
597,13	4592,03
597,388	4581,49
597,646	4569,4
597,904	4487,94
598,162	4527,85
598,42	4844,31
598,679	4655,85
598,937	4459,85
599,195	4533,85
599,453	4537,4
599,711	4730,4
599,969	4560,03
600,227	4620,85
600,485	4619,03
600,743	4607,76
601,001	4512,31
601,259	4603,58
601,517	4592,49
601,775	4639,03
602,033	4517,58
602,291	4781,4
602,549	4821,76
602,807	4592,49
603,065	4465,31
603,323	4493,85
603,581	4591,31
603,839	4478,85
604,097	4355,49
604,355	4640,58
604,613	4769,94
604,871	4530,4
605,128	4444,22
605,386	4362,03
605,644	4592,03
605,902	4587,03
606,16	4429,58
606,418	4443,85
606,676	4417,67
606,933	4471,4
607,191	4383,13
607,449	4352,76
607,707	4603,31
607,965	4498,94
608,223	4314,49
608,48	4238,67
608,738	4435,03
608,996	4469,03
609,254	4447,22
609,511	4798,58
609,769	4671,13
610,027	4563,03
610,285	4389,58
610,542	4232,13
610,8	4353,49
611,058	4414,67
611,315	4273,49
611,573	4512,49
611,831	4341,94
612,088	4453,4
612,346	4353,22
612,604	4293,49
612,861	4351,67
613,119	4438,67
613,376	4316,31
613,634	4345,76
613,892	4501,4
614,149	4430,22
614,407	4196,03
614,664	4162,31
614,922	4310,58
615,18	4549,85
615,437	4281,58
615,695	4290,03
615,952	4511,85
616,21	4520,13
616,467	4739,76
616,725	4214,58
616,982	4460,85
617,24	4426,67
617,497	4471,03
617,755	4238,49
618,012	4213,03
618,27	4557,31
618,527	4340,94
618,784	4297,31
619,042	4255,03
619,299	4515,03
619,557	4248,76
619,814	4281,94
620,071	4451,58
620,329	4254,03
620,586	4089,67
620,844	4081,4
621,101	4386,13
621,358	4477,31
621,616	4146,03
621,873	4427,4
622,13	4308,85
622,388	4563,76
622,645	4316,94
622,902	4266,85
623,159	4403,13
623,417	4284,94
623,674	4156,94
623,931	4154,31
624,188	4171,67
624,446	4240,76
624,703	4200,4
624,96	4108,58
625,217	4149,58
625,475	4365,22
625,732	3996,58
625,989	4210,22
626,246	4163,22
626,503	4223,31
626,761	4115,13
627,018	4051,49
627,275	4162,58
627,532	4090,31
627,789	3916,4
628,046	3986,58
628,303	4123,67
628,56	4194,03
628,818	3872,13
629,075	3870,13
629,332	4002,85
629,589	4051,31
629,846	3971,85
630,103	3953,22
630,36	4159,76
630,617	3945,22
630,874	3777,22
631,131	4022,4
631,388	4153,49
631,645	3967,76
631,902	3839,03
632,159	3829,13
632,416	3951,31
632,673	4005,76
632,93	3711,76
633,187	3592,31
633,444	3964,03
633,701	3948,13
633,958	3828,67
634,215	3791,49
634,471	3733,67
634,728	3677,58
634,985	3568,13
635,242	3868,76
635,499	3912,76
635,756	3751,4
636,013	3581,76
636,27	3530,22
636,526	3741,58
636,783	3846,31
637,04	3667,94
637,297	3525,49
637,554	3591,03
637,81	3696,85
638,067	3634,67
638,324	3570,58
638,581	3521,31
638,838	3627,13
639,094	3393,22
639,351	3619,49
639,608	3779,85
639,864	3538,4
640,121	3462,13
640,378	3607,94
640,635	3450,49
640,891	3519,31
641,148	3379,85
641,405	3318,67
641,661	3404,94
641,918	3525,22
642,175	3300,4
642,431	3409,85
642,688	3613,85
642,944	3366,76
643,201	3228,58
643,458	3250,13
643,714	3605,49
643,971	3345,4
644,227	3241,67
644,484	3168,94
644,741	3319,31
644,997	3360,49
645,254	3281,85
645,51	3096,58
645,767	3352,67
646,023	3310,22
646,28	3193,22
646,536	3076,13
646,793	3114,22
647,049	3208,85
647,306	3224,4
647,562	3002,58
647,819	3389,76
648,075	3101,03
648,331	3113,58
648,588	3037,03
648,844	3150,4
649,101	3218,49
649,357	2912,13
649,613	2913,85
649,87	3063,67
650,126	3386,4
650,383	2998,03
650,639	3091,22
650,895	3160,03
651,152	3136,49
651,408	2828,13
651,664	2878,94
651,921	3019,94
652,177	2986,4
652,433	2867,76
652,689	2852,03
652,946	2997,03
653,202	3002,03
653,458	2954,03
653,715	2975,13
653,971	2841,94
654,227	3033,22
654,483	2818,22
654,739	2897,85
654,996	2906,49
655,252	2981,03
655,508	2795,85
655,764	2792,58
656,02	2901,85
656,277	2923,49
656,533	2743,13
656,789	3081,85
657,045	2819,76
657,301	2844,13
657,557	2676,67
657,813	2632,13
658,07	2748,22
658,326	2842,49
658,582	2677,76
658,838	2940,67
659,094	2958,85
659,35	2900,4
659,606	2946,13
659,862	2738,31
660,118	2749,31
660,374	2935,4
660,63	2850,13
660,886	2708,4
661,142	2754,22
661,398	2698,85
661,654	2688,4
661,91	2618,49
662,166	2884,13
662,422	2778,67
662,678	2773,13
662,934	2568,31
663,19	2867,49
663,446	2760,03
663,702	2693,85
663,957	2767,94
664,213	2703,76
664,469	2840,94
664,725	2812,58
664,981	2868,94
665,237	2775,58
665,493	3029,03
665,749	2649,31
666,004	2643,76
666,26	2715,13
666,516	2716,58
666,772	2703,49
667,028	2787,76
667,283	2800,85
667,539	2873,94
667,795	2806,49
668,051	2774,22
668,307	3004,94
668,562	3035,03
668,818	2756,22
669,074	2752,03
669,329	2755,03
669,585	2942,03
669,841	2665,94
670,097	2742,13
670,352	2763,31
670,608	2896,49
670,864	2782,85
671,119	2840,76
671,375	3125,31
671,631	2899,49
671,886	2728,58
672,142	2635,22
672,397	2996,58
672,653	2978,67
672,909	2706,76
673,164	2803,94
673,42	3090,13
673,675	3041,4
673,931	2835,4
674,186	2742,49
674,442	2943,31
674,698	3062,94
674,953	2785,03
675,209	2809,94
675,464	2856,76
675,72	3457,58
675,975	3026,67
676,231	2833,94
676,486	2939,94
676,742	3063,49
676,997	3002,67
677,252	3024,03
677,508	2933,22
677,763	3057,13
678,019	2807,31
678,274	3005,22
678,53	3068,58
678,785	3017,31
679,04	2998,31
679,296	2830,31
679,551	3115,4
679,806	3015,13
680,062	3026,85
680,317	2877,58
680,572	3162,49
680,828	3267,03
681,083	3011,4
681,338	3017,4
681,594	3113,67
681,849	3328,4
682,104	3126,03
682,36	3078,58
682,615	3232,76
682,87	3324,67
683,125	3251,4
683,381	3135,03
683,636	3113,58
683,891	3239,31
684,146	3363,31
684,401	3278,85
684,657	3491,13
684,912	3526,4
685,167	3181,49
685,422	3067,85
685,677	3280,94
685,932	3375,58
686,188	3115,94
686,443	3201,49
686,698	3397,49
686,953	3350,85
687,208	3267,13
687,463	3295,13
687,718	3329,58
687,973	3452,76
688,228	3455,76
688,483	3537,94
688,739	3466,58
688,994	3430,22
689,249	3264,49
689,504	3347,31
689,759	3442,13
690,014	3439,67
690,269	3412,22
690,524	3505,94
690,779	3877,03
691,034	3533,49
691,289	3819,49
691,544	3495,13
691,798	3597,58
692,053	3516,94
692,308	3488,49
692,563	3345,03
692,818	3485,58
693,073	3592,67
693,328	3637,31
693,583	3336,58
693,838	3638,85
694,093	3485,58
694,347	3409,76
694,602	3604,58
694,857	3486,58
695,112	3648,4
695,367	3510,58
695,622	3713,67
695,876	3567,13
696,131	3584,22
696,386	3528,58
696,641	3477,31
696,896	3541,94
697,15	3596,22
697,405	3346,58
697,66	3839,03
697,915	3676,49
698,169	3763,76
698,424	3497,67
698,679	3452,03
698,933	3594,67
699,188	3796,4
699,443	3429,67
699,698	3331,22
699,952	3415,76
700,207	3507,03
700,461	3439,94
700,716	3391,94
700,971	3613,58
701,225	3559,4
701,48	3377,94
701,735	3840,49
701,989	3579,85
702,244	3588,22
702,498	3436,03
702,753	3437,22
703,007	3578,94
703,262	3780,76
703,517	3568,67
703,771	3493,49
704,026	3583,4
704,28	3589,94
704,535	3503,58
704,789	3438,49
705,044	3404,13
705,298	3424,49
705,553	3325,13
705,807	3303,4
706,062	3445,85
706,316	3484,13
706,57	3340,67
706,825	3300,13
707,079	3707,49
707,334	3431,58
707,588	3192,85
707,842	3202,13
708,097	3248,13
708,351	3413,58
708,606	3274,85
708,86	3198,58
709,114	3432,49
709,369	3484,03
709,623	3267,67
709,877	3097,03
710,132	3421,85
710,386	3380,31
710,64	3108,76
710,895	3165,76
711,149	3363,22
711,403	3426,76
711,657	3296,76
711,912	3112,4
712,166	3372,58
712,42	3220,22
712,674	2998,58
712,928	3188,58
713,183	3122,67
713,437	3088,4
713,691	3008,85
713,945	3040,94
714,199	3114,85
714,454	3297,13
714,708	3111,49
714,962	2946,67
715,216	3039,76
715,47	3131,58
715,724	2960,94
715,978	2955,49
716,233	3087,13
716,487	3214,31
716,741	3046,13
716,995	3169,58
717,249	3229,03
717,503	3240,58
717,757	3063,67
718,011	3319,67
718,265	3147,94
718,519	3244,58
718,773	2948,4
719,027	2869,22
719,281	2851,22
719,535	2879,76
719,789	2867,94
720,043	2683,67
720,297	2940,13
720,551	2779,76
720,805	2685,22
721,059	2672,49
721,313	2712,94
721,567	2755,49
721,821	2622,76
722,074	2649,58
722,328	2774,85
722,582	2737,31
722,836	2716,22
723,09	2515,13
723,344	2889,4
723,598	2679,49
723,851	2723,31
724,105	2679,4
724,359	2603,85
724,613	2784,4
724,867	2640,94
725,121	2604,4
725,374	2855,94
725,628	2622,03
725,882	2464,22
726,136	2566,94
726,389	2559,31
726,643	2939,13
726,897	2565,4
727,151	2292,76
727,404	2426,13
727,658	2346,31
727,912	2312,58
728,165	2227,31
728,419	2370,13
728,673	2466,67
728,926	2179,13
729,18	2252,58
729,434	2308,67
729,687	2385,49
729,941	2405,4
730,195	2176,22
730,448	2301,85
730,702	2304,4
730,955	2194,22
731,209	2095,58
731,462	2348,58
731,716	2295,13
731,97	2150,85
732,223	2267,85
732,477	2267,58
732,73	2499,58
732,984	2201,22
733,237	2048,58
733,491	2193,76
733,744	2162,13
733,998	2078,67
734,251	1956,22
734,505	2155,58
734,758	2094,03
735,012	2083,31
735,265	1947,85
735,518	2129,22
735,772	2094,4
736,025	1954,58
736,279	1999,94
736,532	2098,76
736,785	2152,03
737,039	1975,31
737,292	1895,49
737,546	1875,4
737,799	2044,94
738,052	1730,76
738,306	1768,4
738,559	1966,22
738,812	2025,22
739,066	1849,85
739,319	1908,49
739,572	1973,13
739,825	2118,76
740,079	1873,31
740,332	1827,22
740,585	1795,67
740,838	1854,4
741,092	1689,4
741,345	1760,94
741,598	1738,13
741,851	1790,4
742,104	1699,4
742,358	1569,4
742,611	1627,94
742,864	1850,58
743,117	1551,85
743,37	1610,76
743,623	1791,03
743,877	1773,85
744,13	1586,13
744,383	1550,76
744,636	1647,58
744,889	1772,13
745,142	1663,67
745,395	1399,67
745,648	1627,85
745,901	1933,76
746,154	1530,4
746,408	1404,49
746,661	1530,76
746,914	1468,94
747,167	1266,76
747,42	1511,58
747,673	1527,31
747,926	1664,31
748,179	1380,13
748,432	1450,13
748,685	1469,4
748,938	1703,13
749,19	1328,4
749,443	1385,76
749,696	1414,03
749,949	1750,94
750,202	1458,31
750,455	1420,94
750,708	1782,94
750,961	1464,67
751,214	3174,03
751,467	1638,4
751,719	1286,31
751,972	1260,58
752,225	2085,94
752,478	1390,13
752,731	1378,58
752,984	1429,22
753,236	1320,31
753,489	1239,31
753,742	1257,85
753,995	1386,76
754,248	1140,4
754,5	1071,67
754,753	1192,13
755,006	1367,76
755,259	1000,4
755,511	1236,85
755,764	1166,58
756,017	1216,49
756,269	944,76
756,522	951,67
756,775	1227,76
757,027	1305,94
757,28	978,13
757,533	973,13
757,785	1039,85
758,038	1094,4
758,291	1049,31
758,543	996,49
758,796	1168,4
759,049	1019,13
759,301	925,31
759,554	917,4
759,806	982,58
760,059	1132,85
760,311	1036,22
760,564	1060,49
760,817	1043,76
761,069	1206,85
761,322	842,85
761,574	903,31
761,827	1065,03
762,079	1075,58
762,332	1052,76
762,584	849,31
762,837	1077,85
763,089	968,76
763,341	875,49
763,594	847,13
763,846	857,76
764,099	908,4
764,351	847,49
764,604	762,94
764,856	840,03
765,108	788,03
765,361	806,76
765,613	707,03
765,865	830,49
766,118	940,58
766,37	1027,03
766,623	920,94
766,875	1069,22
767,127	915,4
767,379	660,31
767,632	705,13
767,884	722,94
768,136	1004,85
768,389	847,85
768,641	1045,67
768,893	899,4
769,145	1148,49
769,398	727,94
769,65	797,49
769,902	798,67
770,154	714,85
770,406	702,85
770,659	836,85
770,911	932,22
771,163	758,22
771,415	932,76
771,667	659,76
771,919	774,76
772,172	974,31
772,424	509,85
772,676	576,49
772,928	819,13
773,18	828,22
773,432	622,58
773,684	489,58
773,936	665,94
774,188	674,58
774,44	625,85
774,693	712,58
774,945	800,49
775,197	877,58
775,449	749,67
775,701	563,58
775,953	684,49
776,205	621,58
776,457	572,67
776,709	435,94
776,961	566,03
777,213	1110,49
777,464	488,67
777,716	508,76
777,968	594,03
778,22	480,49
778,472	505,13
778,724	532,58
778,976	679,13
779,228	588,67
779,48	387,03
779,732	563,22
779,984	644,58
780,235	673,31
780,487	378,49
780,739	646,85
780,991	567,76
781,243	526,31
781,494	737,13
781,746	522,13
781,998	514,85
782,25	547,03
782,502	413,58
782,753	463,85
783,005	584,22
783,257	621,58
783,509	524,31
783,76	519,22
784,012	546,94
784,264	525,67
784,515	418,31
784,767	680,67
785,019	509,13
785,271	564,13
785,522	407,76
785,774	323,76
786,026	484,85
786,277	766,31
786,529	577,49
786,78	563,67
787,032	855,4
787,284	450,03
787,535	331,67
787,787	174,4
788,038	323,94
788,29	437,76
788,541	412,58
788,793	347,58
789,045	480,58
789,296	593,67
789,548	238,67
789,799	307,49
790,051	466,58
790,302	564,4
790,554	324,85
790,805	320,49
791,057	491,76
791,308	453,67
791,559	190,94
791,811	362,22
792,062	768,4
792,314	365,67
792,565	353,03
792,817	368,22
793,068	398,67
793,319	517,31
793,571	531,22
793,822	370,67
794,073	376,94
794,325	282,4
794,576	120,13
794,827	279,03
795,079	401,94
795,33	280,49
795,581	300,13
795,833	183,58
796,084	644,22
796,335	376,4
796,587	265,58
796,838	84,03
797,089	529,31
797,34	392,58
797,592	258,94
797,843	73,85
798,094	305,94
798,345	282,4
798,596	340,85
798,848	165,31
799,099	341,76
799,35	365,49
799,601	233,03
799,852	266,76
800,103	359,03
800,355	302,13
800,606	2590,85
800,857	741,4
801,108	388,85
801,359	264,4
801,61	207,4
801,861	18,76
802,112	172,85
802,363	286,03
802,614	38,94
802,865	216,85
803,116	577,13
803,367	282,13
803,618	69,85
803,869	9,58
804,12	235,4
804,371	342,49
804,622	133,67
804,873	49,94
805,124	319,58
805,375	281,31
805,626	-8,06
805,877	47,31
806,128	458,58
806,379	307,13
806,63	161,94
806,881	4,58
807,132	293,4
807,383	260,03
807,634	-20,69
807,884	65,31
808,135	113,13
808,386	160,67
808,637	120,76
808,888	-6,33
809,139	136,58
809,389	263,67
809,64	243,58
809,891	182,67
810,142	161,67
810,393	153,76
810,643	-66,33
810,894	384,4
811,145	251,94
811,396	354,03
811,646	67,58
811,897	152,22
812,148	439,94
812,398	203,4
812,649	95,22
812,9	-57,06
813,151	277,49
813,401	308,03
813,652	127,76
813,902	-61,69
814,153	292,03
814,404	544,13
814,654	76,03
814,905	-17,69
815,156	316,03
815,406	268,4
815,657	143,4
815,907	-16,87
816,158	55,22
816,408	120,03
816,659	144,76
816,91	50,49
817,16	100,03
817,411	200,85
817,661	132,03
817,912	-31,87
818,162	95,67
818,413	686,03
818,663	113,22
818,914	109,94
819,164	127,22
819,414	123,13
819,665	-25,69
819,915	-26,6
820,166	434,67
820,416	117,49
820,667	253,58
820,917	-55,69
821,167	322,13
821,418	395,4
821,668	-105,78
821,918	42,67
822,169	111,58
822,419	183,13
822,67	32,03
822,92	-60,87
823,17	181,13
823,42	359,03
823,671	133,13
823,921	-18,24
824,171	222,13
824,422	154,58
824,672	116,22
824,922	-98,78
825,172	87,67
825,423	218,31
825,673	-99,51
825,923	-151,33
826,173	152,94
826,423	0,49
826,674	53,58
826,924	-7,15
827,174	21,94
827,424	309,85
827,674	109,22
827,924	50,76
828,175	36,03
828,425	53,22
828,675	72,31
828,925	-24,42
829,175	253,67
829,425	32,03
829,675	96,31
829,925	-52,33
830,175	271,67
830,425	79,22
830,675	-37,06
830,925	-105,6
831,175	106,22
831,425	218,4
831,676	36,4
831,926	81,85
832,175	100,49
832,425	19,76
832,675	-31,24
832,925	282,85
833,175	300,58
833,425	83,03
833,675	-137,33
833,925	-153,15
834,175	312,94
834,425	114,22
834,675	-39,42
834,925	-72,33
835,175	327,22
835,425	231,13
835,674	62,49
835,924	43,03
836,174	26,58
836,424	100,94
836,674	-120,15
836,924	-70,6
837,173	160,67
837,423	142,76
837,673	0,94
837,923	-56,06
838,173	123,22
838,422	268,76
838,672	150,67
838,922	3,4
839,172	341,03
839,421	136,85
839,671	-108,15
839,921	-186,97
840,17	46,67
840,42	333,94
840,67	146,31
840,919	-68,42
841,169	79,4
841,419	128,22
841,668	100,94
841,918	-7,33
842,168	155,31
842,417	259,49
842,667	-83,24
842,916	23,67
843,166	131,67
843,416	176,76
843,665	16,13
843,915	-206,78
844,164	97,67
844,414	265,4
844,663	-46,78
844,913	-127,69
845,162	151,67
845,412	65,4
845,662	-44,78
845,911	-90,33
846,16	1,85
846,41	71,13
846,659	-215,24
846,909	-156,97
847,158	-57,87
847,408	42,22
847,657	15,13
847,907	-168,42
848,156	-27,33
848,405	79,67
848,655	154,13
848,904	-61,51
849,154	-37,06
849,403	95,67
849,652	-203,33
849,902	-197,24
850,151	13,58
850,4	-37,87
850,65	-190,15
850,899	-81,15
851,148	48,49
851,398	11,49
851,647	1286,67
851,896	125,76
852,145	45,85
852,395	78,22
852,644	-64,06
852,893	-10,24
853,142	22,4
853,392	-36,87
853,641	-11,33
853,89	-87,97
854,139	227,31
854,388	55,31
854,637	-62,97
854,887	15,4
855,136	79,03
855,385	360,49
855,634	-89,51
855,883	100,03
856,132	110,94
856,381	28,13
856,631	43,76
856,88	7,03
857,129	239,85
857,378	107,94
857,627	-133,24
857,876	-217,24
858,125	163,4
858,374	40,03
858,623	-182,97
858,872	-177,51
859,121	103,49
859,37	51,13
859,619	-110,69
859,868	111,13
860,117	5,58
860,366	26,4
860,615	4,94
860,864	-180,06
861,113	51,76
861,362	-15,51
861,611	-156,33
861,86	-163,97
862,108	25,67
862,357	79,03
862,606	-233,06
862,855	-83,69
863,104	153,31
863,353	155,49
863,602	-46,06
863,851	-50,24
864,099	-56,42
864,348	99,85
864,597	-90,6
864,846	22,31
865,095	43,03
865,343	261,58
865,592	-54,33
865,841	-189,06
866,09	134,31
866,338	228,76
866,587	-65,15
866,836	169,67
867,085	60,94
867,333	194,31
867,582	-160,06
867,831	-83,78
868,079	-30,24
868,328	249,31
868,577	-192,97
868,825	47,76
869,074	220,22
869,323	104,85
869,571	-75,24
869,82	-143,51
870,068	111,13
870,317	234,58
870,566	-96,33
870,814	-96,69
871,063	98,94
871,311	334,13
871,56	-112,78
871,808	-23,78
872,057	85,4
872,306	66,22
872,554	-135,51
872,803	129,49
873,051	36,31
873,3	156,85
873,548	173,13
873,797	-66,33
874,045	106,49
874,293	254,58
874,542	-31,69
874,79	-184,78
875,039	63,22
875,287	73,94
875,536	-161,6
875,784	-206,97
876,032	106,31
876,281	181,85
876,529	-136,78
876,777	-109,78
877,026	45,4
877,274	4,49
877,523	-112,24
877,771	-153,69
878,019	-7,87
878,267	67,76
878,516	-195,06
878,764	-31,42
879,012	97,49
879,261	231,94
879,509	-134,33
879,757	-185,06
880,005	26,4
880,254	42,49
880,502	-78,78
880,75	-57,6
880,998	100,13
881,246	28,4
881,495	-81,24
881,743	-113,78
881,991	46,94
882,239	185,58
882,487	232,03
882,735	-8,33
882,984	87,85
883,232	176,76
883,48	-169,97
883,728	237,13
883,976	-42,06
884,224	-35,33
884,472	-14,51
884,72	-194,78
884,968	264,67
885,216	219,85
885,464	-119,6
885,712	-201,87
885,96	-7,78
886,208	163,22
886,457	-117,06
886,704	-161,87
886,952	29,94
887,2	71,22
887,448	-55,87
887,696	-199,06
887,944	121,49
888,192	376,22
888,44	17,58
888,688	-135,69
888,936	169,85
889,184	125,67
889,432	72,94
889,68	-210,78
889,928	-8,24
890,175	-7,24
890,423	-86,33
890,671	-20,33
890,919	162,13
891,167	147,13
891,415	56,76
891,663	-98,78
891,91	22,76
892,158	131,49
892,406	-134,87
892,654	-203,24
892,901	281,67
893,149	110,13
893,397	-163,97
893,645	-141,42
893,892	11,58
894,14	112,31
894,388	-123,15
894,636	-247,42
894,883	-81,69
895,131	125,4
895,379	-194,42
895,626	-218,33
895,874	-34,24
896,122	173,76
896,369	145,85
896,617	-110,42
896,864	5,85
897,112	104,31
897,36	-152,69
897,607	-234,78
897,855	-90,78
898,102	147,4
898,35	-58,78
898,598	-120,15
898,845	187,67
899,093	264,03
899,34	-55,15
899,588	-205,97
899,835	-25,42
900,083	385,76
900,33	-82,6
900,578	-58,42
900,825	166,13
901,073	44,13
901,32	44,22
901,568	-12,69
901,815	-13,24
902,062	68,94
902,31	-170,15
902,557	-147,06
902,805	-25,06
903,052	13,03
903,299	-234,69
903,547	-173,33
903,794	213,49
904,042	15,67
904,289	-31,06
904,536	-52,24
904,784	-4,78
905,031	45,13
905,278	-164,87
905,525	-62,6
905,773	26,4
906,02	4,03
906,267	-109,42
906,515	166,67
906,762	188,94
907,009	230,4
907,256	-8,87
907,504	-229,78
907,751	184,58
907,998	118,03
908,245	81,22
908,492	-236,97
908,74	24,94
908,987	1067,58
909,234	3,76
909,481	-232,24
909,728	107,94
909,975	170,58
910,222	-83,33
910,47	-203,87
910,717	93,94
910,964	-52,87
911,211	-155,69
911,458	29,49
911,705	124,94
911,952	14,67
912,199	-72,69
912,446	-92,78
912,693	164,22
912,94	37,03
913,187	-154,69
913,434	-263,6
913,681	-51,51
913,928	91,76
914,175	-121,97
914,422	-161,06
914,669	146,4
914,916	150,49
915,163	1,31
915,41	-239,87
915,657	-46,6
915,904	308,13
916,151	-44,06
916,398	-171,97
916,644	-30,51
916,891	289,85
917,138	-64,69
917,385	137,31
917,632	127,22
917,879	46,4
918,126	-162,87
918,372	-9,06
918,619	156,03
918,866	90,03
919,113	-206,6
919,36	-94,97
919,606	87,94
919,853	110,49
920,1	-102,69
920,347	-171,87
920,593	176,13
920,84	34,67
921,087	-174,69
921,334	-147,42
921,58	99,76
921,827	414,58
922,074	-108,33
922,32	-147,6
922,567	96,03
922,814	65,03
923,06	-19,87
923,307	-121,33
923,554	288,58
923,8	146,94
924,047	11,03
924,293	-23,42
924,54	5,94
924,787	26,85
925,033	-209,15
925,28	-252,06
925,526	-12,51
925,773	325,76
926,019	-48,6
926,266	-49,42
926,512	97,4
926,759	54,94
927,005	-85,24
927,252	180,31
927,498	78,22
927,745	-18,6
927,991	-129,42
928,238	-44,78
928,484	92,03
928,731	284,85
928,977	-31,78
929,223	-126,69
929,47	235,94
929,716	25,94
929,963	0,67
930,209	-40,69
930,455	258,49
930,702	237,22
930,948	-101,24
931,194	-215,42
931,441	-52,78
931,687	20,76
931,933	-62,87
932,18	-244,51
932,426	-31,24
932,672	243,49
932,919	-107,87
933,165	-122,87
933,411	276,85
933,657	13,22
933,904	-75,24
934,15	-39,33
934,396	-42,06
934,642	100,03
934,889	-114,97
935,135	-162,51
935,381	-56,6
935,627	227,58
935,873	-198,51
936,119	42,49
936,366	127,22
936,612	-21,97
936,858	-249,78
937,104	58,22
937,35	177,31
937,596	270,58
937,842	-172,15
938,088	-41,51
938,334	49,49
938,58	92,22
938,827	64,58
939,073	-15,51
939,319	79,31
939,565	141,49
939,811	-85,69
940,057	-95,97
940,303	-17,33
940,549	199,49
940,795	-100,69
941,041	-245,33
941,287	132,13
941,533	223,67
941,778	-122,97
942,024	-238,51
942,27	-88,24
942,516	35,58
942,762	-69,69
943,008	-205,97
943,254	10,13
943,5	333,4
943,746	-26,69
943,992	-143,33
944,237	5,13
944,483	121,13
944,729	-89,42
944,975	-148,42
945,221	50,31
945,467	242,49
945,712	-102,78
945,958	12,22
946,204	-24,78
946,45	59,31
946,695	-167,6
946,941	65,13
947,187	111,49
947,433	-70,87
947,678	-151,69
947,924	-213,97
948,17	192,49
948,415	38,58
948,661	-120,87
948,907	-61,15
949,153	53,13
949,398	39,58
949,644	31,67
949,889	108,58
950,135	80,4
950,381	6,22
950,626	-125,69
950,872	-125,78
951,118	123,4
951,363	-60,42
951,609	-133,42
951,854	-137,42
952,1	-100,78
952,345	18,49
952,591	-111,97
952,836	-182,97
953,082	-110,69
953,327	128,67
953,573	-194,97
953,818	-92,78
954,064	45,76
954,309	87,22
954,555	-67,97
954,8	-162,33
955,046	0,67
955,291	137,13
955,537	-137,78
955,782	-191,69
956,027	140,13
956,273	93,76
956,518	64,58
956,764	-53,33
957,009	89,03
957,254	97,22
957,5	-228,69
957,745	-116,97
957,99	-28,24
958,236	71,67
958,481	-186,33
958,726	83,67
958,972	42,85
959,217	106,4
959,462	-129,06
959,707	-84,97
959,953	287,4
960,198	185,49
960,443	66,31
960,688	91,58
960,934	381,49
961,179	-28,87
961,424	-198,87
961,669	-122,06
961,914	70,22
962,16	82,94
962,405	-19,69
962,65	177,67
962,895	57,58
963,14	322,31
963,385	73,85
963,63	82,58
963,876	-56,24
964,121	255,58
964,366	68,76
964,611	44,31
964,856	103,49
965,101	26,67
965,346	130,58
965,591	-150,69
965,836	10,49
966,081	69,31
966,326	68,4
966,571	45,58
966,816	176,85
967,061	46,22
967,306	-54,6
967,551	-80,33
967,796	47,31
968,041	206,76
968,286	-156,51
968,531	-17,06
968,776	-36,06
969,021	-65,69
969,266	1,03
969,511	-236,24
969,755	-103,24
970	74,58
970,245	-203,6
970,49	62,4
970,735	223,13
970,98	175,85
971,225	-117,6
971,469	200,03
971,714	163,58
971,959	218,76
972,204	-75,87
972,449	40,22
972,693	36,49
972,938	209,31
973,183	16,49
973,428	-29,6
973,672	-32,97
973,917	48,58
974,162	-80,69
974,407	-224,78
974,651	105,67
974,896	-71,69
975,141	-141,97
975,385	-141,24
975,63	-20,15
975,875	-7,78
976,119	20,49
976,364	-153,15
976,608	-65,87
976,853	-79,78
977,098	-109,06
977,342	-159,69
977,587	303,94
977,831	222,4
978,076	-132,69
978,321	-131,6
978,565	6,58
978,81	203,22
979,054	151,85
979,299	-68,51
979,543	-81,42
979,788	136,76
980,032	13,03
980,277	-79,78
980,521	33,13
980,766	0,31
981,01	-44,24
981,255	-71,51
981,499	235,58
981,743	210,85
981,988	-132,87
982,232	-37,78
982,477	367,4
982,721	234,85
982,965	-171,51
983,21	12,58
983,454	197,85
983,699	181,58
983,943	-29,06
984,187	-144,24
984,432	81,67
984,676	21,67
984,92	-2,24
985,165	25,67
985,409	132,76
985,653	248,58
985,897	-65,51
986,142	143,31
986,386	220,94
986,63	326,03
986,874	-101,97
987,119	-167,78
987,363	-55,69
987,607	92,58
987,851	-87,24
988,095	139,76
988,34	75,22
988,584	215,76
988,828	-49,97
989,072	-137,78
989,316	11,4
989,56	158,13
989,804	-113,97
990,049	-161,33
990,293	113,49
990,537	57,49
990,781	-82,6
991,025	-145,33
991,269	-63,97
991,513	161,58
991,757	364,31
992,001	-61,87
992,245	57,4
992,489	147,31
992,733	48,67
992,977	-45,78
993,221	22,67
993,465	-108,24
993,709	-91,87
993,953	-127,42
994,197	58,76
994,441	101,85
994,685	14,03
994,929	-37,87
995,173	183,94
995,417	121,58
995,661	-38,69
995,904	-222,51
996,148	19,49
996,392	1,94
996,636	-242,33
996,88	-50,15
997,124	21,67
997,368	217,67
997,611	521,58
997,855	48,58
998,099	61,58
998,343	72,94
998,587	115,4
998,83	77,13
999,074	171,13
999,318	42,94
999,562	-57,87
999,805	-118,06
1000,049	-43,6
1000,293	85,85
1000,537	231,76
1000,78	9,76
1001,024	23,03
1001,268	11,31
1001,511	-56,87
1001,755	-182,42
1001,999	-24,06
1002,242	172,4
1002,486	-0,6
1002,73	46,4
1002,973	645,4
1003,217	235,31
1003,46	-117,6
1003,704	-36,24
1003,948	59,49
1004,191	384,85
1004,435	-174,33
1004,678	399,22
1004,922	131,58
1005,165	128,58
1005,409	-15,33
1005,652	22,76
1005,896	-35,6
1006,139	228,58
1006,383	-130,6
1006,626	9,58
1006,87	177,76
1007,113	48,49
1007,357	47,49
1007,6	-58,24
1007,844	43,03
1008,087	293,85
1008,33	-31,69
1008,574	6,49
1008,817	87,13
1009,061	29,31
1009,304	-99,97
1009,547	156,85
1009,791	242,4
1010,034	64,22
1010,277	-16,51
1010,521	-197,33
1010,764	127,58
1011,007	68,67
1011,251	-96,87
1011,494	-152,97
1011,737	38,22
1011,98	173,13
1012,224	155,03
1012,467	55,67
1012,71	-39,87
1012,953	184,49
1013,197	-3,06
1013,44	-217,69
1013,683	-54,87
1013,926	-57,33
1014,169	-125,51
1014,413	-134,78
1014,656	167,4
1014,899	110,67
1015,142	79,58
1015,385	-41,06
1015,628	40,76
1015,871	84,76
1016,115	-102,06
1016,358	-77,33
1016,601	149,49
1016,844	53,49
1017,087	18,67
1017,33	51,4
1017,573	137,4
1017,816	167,94
1018,059	-81,42
1018,302	-99,6
1018,545	-75,42
1018,788	56,13
1019,031	143,76
1019,274	28,31
1019,517	139,94
1019,76	114,94
1020,003	-220,33
1020,246	-193,51
1020,489	-97,6
1020,732	-47,78
1020,975	-133,97
1021,218	-133,33
1021,461	88,49
1021,703	128,67
1021,946	20,4
1022,189	-172,87
1022,432	-44,97
1022,675	337,49
1022,918	-121,06
1023,161	13,58
1023,403	114,76
1023,646	157,94
1023,889	-13,87
1024,132	-129,33
1024,375	203,58
1024,617	80,85
1024,86	-178,51
1025,103	-138,24
1025,346	-59,15
1025,588	107,49
1025,831	-114,51
1026,074	-112,06
1026,317	-21,42
1026,559	159,4
1026,802	91,13
1027,045	-103,87
1027,287	82,03
1027,53	61,31
1027,773	-157,15
1028,015	-191,42
1028,258	167,13
1028,501	339,58
1028,743	-122,87
1028,986	-95,06
1029,228	306,58
1029,471	229,94
1029,714	-89,69
1029,956	133,67
1030,199	95,31
1030,441	173,67
1030,684	-186,15
1030,926	-226,69
1031,169	154,85
1031,411	177,03
1031,654	-162,06
1031,896	-179,6
1032,139	-0,78
1032,381	61,31
1032,624	105,13
1032,866	-120,87
1033,109	376,67
1033,351	67,58
1033,594	-101,69
1033,836	-74,87
1034,079	28,13
1034,321	81,13
1034,563	-114,69
1034,806	-26,33
1035,048	10,58
1035,29	180,4
1035,533	1,03
1035,775	-17,42
1036,018	80,22
1036,26	12,94
1036,502	964,94
1036,744	-2,78
1036,987	50,67
1037,229	-45,69
1037,471	-192,24
1037,714	1606,49
1037,956	418,85
1038,198	200,49
1038,44	-118,33
1038,683	103,67
1038,925	78,13
1039,167	19,4
1039,409	12,13
1039,651	43,49
1039,894	87,85
1040,136	-73,33
1040,378	-105,06
1040,62	-63,78
1040,862	131,76
1041,104	278,03
1041,347	-12,24
1041,589	-63,78
1041,831	353,49
1042,073	134,22
1042,315	11,49
1042,557	-113,15
1042,799	262,31
1043,041	95,94
1043,283	-76,15
1043,525	-78,06
1043,767	122,31
1044,009	-23,24
1044,251	-217,15
1044,493	2,22
1044,735	-30,06
1044,977	-26,33
1045,219	25,85
1045,461	-99,69
1045,703	89,76
1045,945	78,94
1046,187	-142,33
1046,429	-78,97
1046,671	-12,6
1046,913	80,58
1047,155	180,03
1047,397	-13,33
1047,639	82,4
1047,881	218,58
1048,122	-72,78
1048,364	-57,42
1048,606	-28,33
1048,848	-55,69
1049,09	-236,87
1049,332	-37,06
1049,573	75,94
1049,815	98,49
1050,057	-169,06
1050,299	-119,33
1050,541	115,76
1050,782	302,13
1051,024	-19,6
1051,266	-62,97
1051,508	151,76
1051,749	191,58
1051,991	8,94
1052,233	5,22
1052,474	27,31
1052,716	-31,42
1052,958	119,94
1053,199	308,4
1053,441	57,03
1053,683	156,13
1053,924	-128,69
1054,166	-83,51
1054,408	-4,15
1054,649	132,4
1054,891	63,03
1055,132	2,13
1055,374	-71,33
1055,616	-110,06
1055,857	-129,24
1056,099	-132,33
1056,34	51,31
1056,582	43,49
1056,823	163,4
1057,065	-55,15
1057,306	54,03
1057,548	80,85
1057,789	38,49
1058,031	-69,51
1058,272	20,58
1058,514	31,85
1058,755	-212,24
1058,997	-48,15
1059,238	97,49
1059,479	-9,06
1059,721	24,85
1059,962	-176,87
1060,204	-36,33
1060,445	-6,15
1060,686	52,13
1060,928	-88,15
1061,169	84,03
1061,41	119,03
1061,652	4,03
1061,893	-23,24
1062,134	20,31
1062,376	-49,97
1062,617	-93,06
1062,858	-72,78
1063,1	-37,15
1063,341	93,67
1063,582	42,13
1063,823	58,4
1064,065	-124,87
1064,306	243,76
1064,547	-9,87
1064,788	21,67
1065,029	84,76
1065,271	-27,33
1065,512	-123,51
1065,753	-137,33
1065,994	-26,97
1066,235	208,67
1066,476	-38,15
1066,718	143,13
1066,959	539,13
1067,2	154,58
1067,441	-135,15
1067,682	-197,06
1067,923	-25,51
1068,164	65,94
1068,405	-137,78
1068,646	-201,51
1068,887	222,13
1069,128	126,58
1069,369	-178,78
1069,61	-122,87
1069,851	-3,06
1070,092	-40,69
1070,333	-143,97
1070,574	-102,6
1070,815	-97,87
1071,056	213,4
1071,297	213,31
1071,538	-110,15
1071,779	239,4
1072,02	174,58
1072,261	83,03
1072,502	-127,06
1072,743	199,76
1072,984	-55,97
1073,225	-43,78
1073,466	-189,6
1073,706	9,03
1073,947	50,13
1074,188	187,22
1074,429	350,31
1074,67	37,94
1074,911	-40,87
1075,151	16,49
1075,392	-188,15
1075,633	63,31
1075,874	80,22
1076,114	-146,24
1076,355	67,03
1076,596	52,03
1076,837	188,49
1077,077	-51,33
1077,318	43,94
1077,559	38,22
1077,8	142,4
1078,04	-19,78
1078,281	-174,78
1078,522	-95,15
1078,762	-70,6
1079,003	-65,51
1079,244	-64,06
1079,484	-1,24
1079,725	71,4
1079,965	-15,06
1080,206	-163,42
1080,447	145,13
1080,687	27,22
1080,928	17,67
1081,168	-93,69
1081,409	-9,97
1081,649	103,03
1081,89	-191,06
1082,131	-127,97
1082,371	200,4
1082,612	-27,6
1082,852	126,94
1083,093	-114,15
1083,333	58,85
1083,573	-32,87
1083,814	-86,6
1084,054	-72,87
1084,295	-55,24
1084,535	172,76
1084,776	-62,6
1085,016	-106,69
1085,257	11,67
1085,497	414,49
1085,737	71,94
1085,978	81,31
1086,218	109,67
1086,458	-70,24
1086,699	1,03
1086,939	73,22
1087,179	176,94
1087,42	281,67
1087,66	-72,42
1087,9	35,22
1088,141	128,49
1088,381	506,49
1088,621	-51,24
1088,861	-72,51
1089,102	-49,06
1089,342	121,76
1089,582	-120,87
1089,822	-42,87
1090,063	57,67
1090,303	-59,33
1090,543	-128,51
1090,783	-92,24
1091,023	134,94
1091,263	-87,78
1091,504	-45,69
1091,744	-19,33
1091,984	-53,69
1092,224	102,94
1092,464	-132,97
1092,704	-134,87
1092,944	298,13
1093,184	131,85
1093,425	58,4
1093,665	-167,97
1093,905	250,58
1094,145	161,49
1094,385	-45,6
1094,625	-13,24
1094,865	329,13
1095,105	117,67
1095,345	82,4
1095,585	-132,06
1095,825	-1,24
1096,065	68,13
1096,305	-56,78
1096,545	20,49
1096,785	-34,6
1097,025	98,22
1097,265	-85,69
1097,504	-7,69
1097,744	82,22
1097,984	47,76
1098,224	-89,69
1098,464	100,58
1098,704	46,4
1098,944	24,22
1099,184	-106,06
1099,423	-47,24
1099,663	42,85
1099,903	-94,97
1100,143	-70,24
1100,383	55,94
1100,622	-15,06
1100,862	457,4
1101,102	86,94
1101,342	-114,42
1101,582	89,85
1101,821	70,85
1102,061	-46,78
1102,301	309,4
1102,54	407,67
1102,78	244,4
1103,02	-120,78
1103,26	-152,97
1103,499	139,4
1103,739	167,4
1103,979	68,94
1104,218	267,94
1104,458	401,13
1104,697	-21,87
1104,937	162,49
1105,177	39,94
1105,416	-32,42
1105,656	126,85
1105,896	-36,69
1106,135	-66,06
1106,375	35,31
1106,614	190,22
1106,854	-40,87
1107,093	114,85
1107,333	83,85
1107,572	-0,33
1107,812	-124,87
1108,051	-33,51
1108,291	70,03
1108,53	15,85
1108,77	116,85
1109,009	122,13
1109,249	54,85
1109,488	106,85
1109,728	-37,24
1109,967	-175,51
1110,206	21,4
1110,446	48,49
1110,685	-125,24
1110,925	2,85
1111,164	405,13
1111,403	153,22
1111,643	-46,6
1111,882	-32,33
1112,121	309,4
1112,361	295,22
1112,6	-65,15
1112,839	49,13
1113,079	174,94
1113,318	-31,51
1113,557	202,85
1113,796	235,49
1114,036	20,13
1114,275	-13,69
1114,514	237,85
1114,753	343,03
1114,993	790,76
1115,232	76,94
1115,471	-51,97
1115,71	-49,15
1115,949	116,49
1116,188	302,13
1116,428	43,03
1116,667	111,67
1116,906	106,94
1117,145	333,85
1117,384	37,4
1117,623	203,22
1117,862	59,94
1118,101	-60,87
1118,341	129,03
1118,58	19,49
1118,819	375,94
1119,058	90,85
1119,297	46,22
1119,536	-48,78
1119,775	63,85
1120,014	60,67
1120,253	-154,24
1120,492	-34,15
1120,731	13,03
1120,97	196,94
1121,209	173,94
1121,448	-20,33
1121,687	-2,24
1121,926	430,13
1122,165	64,76
1122,404	95,4
1122,642	196,13
1122,881	-38,06
1123,12	-142,24
1123,359	-26,15
1123,598	458,4
1123,837	145,67
1124,076	66,76
1124,315	-137,06
1124,553	-24,15
1124,792	-44,33
1125,031	-27,97
1125,27	-118,24
1125,509	124,76
1125,747	342,67
1125,986	240,13
1126,225	-111,42
