Data from HR4C34221__2__21-25-16-043.txt Node

Date: Fri Apr 11 21:25:16 MSK 2025
User: 123
Spectrometer: HR4C3422
Trigger mode: 4
Integration Time (sec): 6,000000E-3
Scans to average: 10
Electric dark correction enabled: true
Nonlinearity correction enabled: false
Boxcar width: 0
XAxis mode: Wavelengths
Number of Pixels in Spectrum: 3648
>>>>>Begin Spectral Data<<<<<
195,326	-513,19
195,597	-513,19
195,868	-513,19
196,139	-10,89
196,409	-0,69
196,68	-1,29
196,951	-1,09
197,221	4,11
197,492	2,11
197,762	-1,79
198,033	2,11
198,304	-0,59
198,574	-1,39
198,845	-2,59
199,116	-0,69
199,386	1,51
199,657	-1,59
199,927	1,21
200,198	4,61
200,468	8,51
200,739	4,71
201,009	4,71
201,28	5,61
201,551	7,71
201,821	7,51
202,092	3,21
202,362	8,21
202,633	3,01
202,903	2,71
203,174	7,61
203,444	2,11
203,714	3,51
203,985	3,41
204,255	6,81
204,526	8,01
204,796	3,81
205,067	9,01
205,337	9,61
205,607	4,81
205,878	11,01
206,148	6,01
206,419	5,01
206,689	5,71
206,959	3,91
207,23	6,61
207,5	3,71
207,77	7,21
208,041	5,91
208,311	9,31
208,581	5,81
208,852	4,61
209,122	7,31
209,392	7,51
209,663	4,51
209,933	10,31
210,203	6,01
210,473	5,11
210,744	9,31
211,014	10,11
211,284	4,91
211,554	7,11
211,825	7,71
212,095	4,61
212,365	7,51
212,635	8,91
212,905	3,71
213,176	7,31
213,446	9,21
213,716	6,41
213,986	8,91
214,256	7,71
214,526	4,31
214,797	6,61
215,067	9,91
215,337	8,31
215,607	5,81
215,877	6,71
216,147	9,71
216,417	10,31
216,687	9,01
216,957	6,01
217,227	8,61
217,497	8,01
217,767	5,01
218,038	8,21
218,308	2,21
218,578	4,11
218,848	9,91
219,118	8,21
219,388	7,91
219,658	9,21
219,928	12,71
220,198	10,31
220,468	8,51
220,737	8,21
221,007	7,41
221,277	7,21
221,547	4,91
221,817	6,71
222,087	5,91
222,357	7,81
222,627	5,81
222,897	11,31
223,167	4,41
223,437	10,21
223,707	11,51
223,976	9,81
224,246	7,91
224,516	6,11
224,786	6,11
225,056	5,61
225,326	7,31
225,595	3,31
225,865	4,81
226,135	8,41
226,405	6,51
226,675	10,11
226,944	5,71
227,214	5,51
227,484	2,71
227,754	8,11
228,023	10,21
228,293	10,11
228,563	5,31
228,833	7,71
229,102	5,41
229,372	8,31
229,642	7,41
229,911	5,41
230,181	9,61
230,451	6,41
230,72	5,91
230,99	6,31
231,26	4,71
231,529	8,71
231,799	7,41
232,069	9,11
232,338	5,71
232,608	8,51
232,877	1,31
233,147	6,71
233,417	4,61
233,686	6,81
233,956	2,81
234,225	8,31
234,495	5,11
234,764	5,11
235,034	8,81
235,304	4,51
235,573	12,51
235,843	6,81
236,112	4,71
236,382	6,61
236,651	6,31
236,921	6,61
237,19	9,01
237,46	7,41
237,729	9,21
237,998	9,11
238,268	6,81
238,537	6,81
238,807	5,81
239,076	6,91
239,346	4,61
239,615	7,11
239,884	3,31
240,154	6,91
240,423	3,71
240,693	7,81
240,962	7,71
241,231	7,11
241,501	9,81
241,77	6,01
242,039	5,11
242,309	5,81
242,578	8,91
242,847	10,41
243,116	3,81
243,386	8,11
243,655	7,41
243,924	9,01
244,194	4,91
244,463	7,11
244,732	11,11
245,001	7,41
245,271	11,11
245,54	10,61
245,809	8,41
246,078	4,71
246,347	4,61
246,617	8,41
246,886	5,91
247,155	7,61
247,424	5,51
247,693	7,31
247,963	10,01
248,232	9,31
248,501	6,81
248,77	8,61
249,039	7,51
249,308	3,61
249,577	1,51
249,846	8,91
250,115	9,91
250,385	8,61
250,654	5,01
250,923	4,41
251,192	6,41
251,461	4,91
251,73	7,91
251,999	6,91
252,268	5,31
252,537	9,61
252,806	2,41
253,075	6,21
253,344	3,41
253,613	3,71
253,882	5,31
254,151	5,91
254,42	9,71
254,689	5,41
254,958	8,51
255,227	7,51
255,496	9,11
255,765	3,11
256,033	4,81
256,302	9,01
256,571	10,71
256,84	5,91
257,109	7,81
257,378	3,71
257,647	5,51
257,916	4,21
258,184	5,21
258,453	6,41
258,722	5,21
258,991	9,01
259,26	5,01
259,529	4,91
259,797	4,81
260,066	6,21
260,335	9,71
260,604	5,31
260,873	5,31
261,141	9,11
261,41	8,21
261,679	7,31
261,948	8,01
262,216	0,81
262,485	1,81
262,754	6,71
263,022	8,51
263,291	3,51
263,56	2,61
263,829	3,81
264,097	9,71
264,366	6,11
264,635	8,21
264,903	6,31
265,172	7,61
265,44	4,21
265,709	7,01
265,978	8,51
266,246	5,81
266,515	6,51
266,784	7,31
267,052	7,91
267,321	6,51
267,589	13,71
267,858	1,51
268,126	10,51
268,395	7,01
268,663	8,11
268,932	6,61
269,201	9,91
269,469	9,61
269,738	7,71
270,006	6,11
270,275	7,51
270,543	6,71
270,811	10,01
271,08	6,41
271,348	6,21
271,617	5,31
271,885	6,11
272,154	3,21
272,422	11,41
272,691	9,51
272,959	10,01
273,227	4,51
273,496	6,51
273,764	5,51
274,033	4,81
274,301	0,81
274,569	3,21
274,838	4,41
275,106	10,01
275,374	5,21
275,643	3,81
275,911	4,81
276,179	7,01
276,448	5,11
276,716	5,11
276,984	4,11
277,252	3,91
277,521	7,41
277,789	4,01
278,057	10,61
278,325	5,01
278,594	7,31
278,862	12,11
279,13	5,11
279,398	5,41
279,667	3,81
279,935	7,81
280,203	7,31
280,471	7,21
280,739	7,71
281,008	5,81
281,276	2,51
281,544	4,41
281,812	1,81
282,08	3,51
282,348	5,31
282,616	7,31
282,884	6,51
283,153	8,91
283,421	8,11
283,689	5,71
283,957	8,41
284,225	4,41
284,493	5,01
284,761	4,91
285,029	9,81
285,297	5,71
285,565	7,51
285,833	5,51
286,101	4,21
286,369	4,51
286,637	6,71
286,905	8,01
287,173	4,21
287,441	8,11
287,709	9,61
287,977	11,31
288,245	6,51
288,513	9,81
288,781	5,91
289,049	5,31
289,317	4,61
289,585	3,21
289,853	9,81
290,12	2,41
290,388	8,61
290,656	4,31
290,924	9,51
291,192	7,41
291,46	1,41
291,728	7,21
291,996	6,71
292,263	9,71
292,531	5,41
292,799	7,31
293,067	3,31
293,335	9,91
293,602	9,61
293,87	10,11
294,138	7,41
294,406	11,51
294,673	2,81
294,941	6,41
295,209	6,91
295,477	7,01
295,744	4,31
296,012	10,11
296,28	9,71
296,548	7,91
296,815	7,81
297,083	8,81
297,351	4,71
297,618	9,91
297,886	8,11
298,154	7,61
298,421	6,11
298,689	5,41
298,956	5,61
299,224	7,11
299,492	5,91
299,759	6,71
300,027	7,31
300,294	7,41
300,562	5,31
300,83	7,91
301,097	6,41
301,365	8,11
301,632	6,71
301,9	8,41
302,167	4,21
302,435	6,91
302,702	8,81
302,97	9,31
303,237	12,21
303,505	10,51
303,772	7,91
304,04	6,11
304,307	8,41
304,575	9,11
304,842	10,81
305,11	9,81
305,377	10,51
305,645	7,91
305,912	7,41
306,179	3,81
306,447	10,21
306,714	3,41
306,982	4,21
307,249	5,91
307,516	10,61
307,784	5,31
308,051	3,31
308,318	8,51
308,586	7,91
308,853	4,11
309,12	3,01
309,388	5,81
309,655	4,91
309,922	6,91
310,19	6,11
310,457	5,51
310,724	8,71
310,991	5,71
311,259	4,01
311,526	7,21
311,793	8,11
312,06	5,51
312,328	9,61
312,595	1,91
312,862	7,41
313,129	8,11
313,396	9,11
313,664	6,61
313,931	5,41
314,198	5,91
314,465	7,41
314,732	7,11
314,999	9,31
315,266	7,81
315,534	6,91
315,801	8,21
316,068	2,91
316,335	7,21
316,602	8,31
316,869	8,01
317,136	5,91
317,403	5,01
317,67	9,41
317,937	12,21
318,204	7,31
318,471	8,41
318,738	8,11
319,005	5,51
319,272	9,81
319,539	11,51
319,806	7,01
320,073	9,61
320,34	8,71
320,607	7,31
320,874	11,91
321,141	8,71
321,408	11,21
321,675	8,21
321,942	9,21
322,209	7,71
322,476	7,91
322,743	6,61
323,01	7,11
323,277	5,51
323,544	9,71
323,81	6,91
324,077	7,11
324,344	11,31
324,611	8,31
324,878	12,01
325,145	7,81
325,412	8,71
325,678	5,51
325,945	6,51
326,212	6,01
326,479	8,81
326,746	5,01
327,012	9,51
327,279	5,21
327,546	6,81
327,813	8,81
328,079	8,11
328,346	9,21
328,613	7,81
328,88	7,11
329,146	15,81
329,413	11,41
329,68	8,11
329,946	6,21
330,213	7,01
330,48	7,71
330,746	6,71
331,013	7,71
331,28	11,21
331,546	11,41
331,813	7,71
332,08	10,31
332,346	9,71
332,613	8,51
332,879	7,71
333,146	8,81
333,413	9,61
333,679	7,11
333,946	11,91
334,212	10,71
334,479	11,01
334,745	9,51
335,012	9,11
335,278	10,61
335,545	9,41
335,811	7,51
336,078	11,91
336,344	5,91
336,611	12,31
336,877	13,41
337,144	11,81
337,41	10,41
337,677	12,51
337,943	9,81
338,21	11,41
338,476	12,31
338,742	15,71
339,009	12,51
339,275	8,41
339,542	8,51
339,808	10,71
340,074	9,61
340,341	8,81
340,607	8,91
340,873	8,21
341,14	9,71
341,406	14,41
341,672	5,91
341,939	7,71
342,205	13,01
342,471	11,11
342,738	9,21
343,004	13,71
343,27	11,41
343,537	12,21
343,803	9,11
344,069	7,01
344,335	4,81
344,602	12,51
344,868	8,71
345,134	11,21
345,4	11,11
345,666	13,41
345,933	13,31
346,199	12,71
346,465	9,41
346,731	10,91
346,997	10,21
347,263	14,81
347,53	11,21
347,796	4,81
348,062	14,01
348,328	13,01
348,594	9,91
348,86	14,21
349,126	8,01
349,392	10,91
349,659	10,11
349,925	13,11
350,191	11,21
350,457	12,01
350,723	11,11
350,989	12,61
351,255	11,21
351,521	12,01
351,787	10,31
352,053	13,81
352,319	12,41
352,585	14,81
352,851	11,91
353,117	13,91
353,383	13,71
353,649	10,31
353,915	8,81
354,181	17,61
354,447	11,51
354,713	9,21
354,978	11,91
355,244	11,81
355,51	11,11
355,776	8,31
356,042	10,71
356,308	13,61
356,574	11,71
356,84	8,91
357,106	9,61
357,371	10,21
357,637	13,31
357,903	14,61
358,169	11,61
358,435	14,21
358,701	14,01
358,966	13,31
359,232	12,81
359,498	11,31
359,764	11,91
360,029	9,01
360,295	11,01
360,561	12,91
360,827	19,71
361,092	12,01
361,358	12,51
361,624	13,41
361,89	10,61
362,155	14,41
362,421	15,21
362,687	10,31
362,952	12,01
363,218	13,81
363,484	13,41
363,749	16,61
364,015	14,41
364,281	12,31
364,546	18,61
364,812	17,71
365,077	13,11
365,343	13,01
365,609	9,61
365,874	12,91
366,14	10,81
366,405	13,71
366,671	17,11
366,936	10,81
367,202	9,41
367,467	12,91
367,733	12,91
367,999	11,01
368,264	12,91
368,53	15,71
368,795	14,11
369,061	7,11
369,326	8,01
369,591	14,61
369,857	13,81
370,122	15,21
370,388	14,91
370,653	14,61
370,919	14,91
371,184	15,21
371,45	13,91
371,715	9,81
371,98	14,51
372,246	14,21
372,511	12,81
372,776	13,61
373,042	14,71
373,307	14,11
373,573	16,01
373,838	13,11
374,103	12,11
374,369	14,91
374,634	14,81
374,899	14,71
375,164	13,81
375,43	16,01
375,695	13,81
375,96	11,01
376,226	14,31
376,491	16,41
376,756	15,11
377,021	12,61
377,286	13,81
377,552	15,41
377,817	18,11
378,082	19,11
378,347	17,01
378,613	18,01
378,878	12,41
379,143	17,31
379,408	14,41
379,673	16,51
379,938	15,81
380,203	17,11
380,469	14,91
380,734	14,41
380,999	20,41
381,264	15,21
381,529	9,81
381,794	17,41
382,059	15,41
382,324	14,41
382,589	16,81
382,854	19,31
383,119	16,91
383,385	15,81
383,65	13,31
383,915	16,71
384,18	15,71
384,445	18,11
384,71	19,41
384,975	19,81
385,24	14,21
385,505	17,91
385,77	17,61
386,034	20,51
386,299	23,31
386,564	17,41
386,829	15,91
387,094	19,81
387,359	21,51
387,624	20,01
387,889	15,31
388,154	17,41
388,419	15,91
388,684	20,41
388,949	22,41
389,213	18,21
389,478	16,71
389,743	14,71
390,008	18,21
390,273	24,31
390,538	21,71
390,802	20,11
391,067	16,21
391,332	19,21
391,597	17,01
391,862	19,31
392,126	17,91
392,391	20,91
392,656	13,71
392,921	18,11
393,185	17,01
393,45	18,61
393,715	18,61
393,979	22,81
394,244	21,71
394,509	22,41
394,774	16,21
395,038	17,81
395,303	20,21
395,568	22,61
395,832	20,81
396,097	17,91
396,361	19,11
396,626	20,71
396,891	18,01
397,155	17,21
397,42	15,51
397,685	16,01
397,949	19,71
398,214	19,01
398,478	23,31
398,743	23,11
399,007	16,91
399,272	22,11
399,536	23,61
399,801	22,71
400,066	21,61
400,33	21,31
400,595	19,81
400,859	20,01
401,124	25,81
401,388	25,41
401,652	21,51
401,917	25,51
402,181	21,91
402,446	25,01
402,71	24,81
402,975	28,01
403,239	24,61
403,504	25,31
403,768	22,21
404,032	25,21
404,297	24,51
404,561	24,01
404,826	23,01
405,09	25,61
405,354	25,61
405,619	23,41
405,883	28,11
406,147	24,51
406,412	25,91
406,676	27,61
406,94	26,01
407,205	26,81
407,469	22,21
407,733	26,01
407,997	26,91
408,262	32,41
408,526	25,71
408,79	27,81
409,054	29,11
409,319	27,91
409,583	32,11
409,847	32,51
410,111	34,91
410,375	32,21
410,64	31,21
410,904	35,71
411,168	34,51
411,432	34,81
411,696	34,31
411,96	41,31
412,225	40,51
412,489	38,71
412,753	43,61
413,017	42,01
413,281	45,51
413,545	43,91
413,809	45,81
414,073	46,41
414,337	51,61
414,602	49,21
414,866	55,11
415,13	58,61
415,394	58,31
415,658	58,01
415,922	63,11
416,186	67,11
416,45	70,21
416,714	73,11
416,978	70,81
417,242	77,81
417,506	76,11
417,77	82,11
418,034	86,91
418,298	87,21
418,562	88,41
418,825	94,91
419,089	105,41
419,353	107,11
419,617	109,61
419,881	118,91
420,145	123,71
420,409	123,51
420,673	132,21
420,937	136,01
421,2	144,71
421,464	154,11
421,728	156,31
421,992	161,01
422,256	179,31
422,52	183,21
422,783	189,21
423,047	210,31
423,311	216,11
423,575	226,71
423,839	233,81
424,102	240,61
424,366	253,91
424,63	269,41
424,894	285,21
425,157	300,91
425,421	310,51
425,685	326,61
425,949	344,71
426,212	363,61
426,476	368,91
426,74	394,81
427,003	420,71
427,267	430,21
427,531	454,01
427,794	479,21
428,058	502,31
428,322	504,51
428,585	543,01
428,849	564,11
429,112	588,41
429,376	616,61
429,64	633,51
429,903	678,91
430,167	697,51
430,43	737,61
430,694	768,31
430,957	786,11
431,221	835,11
431,485	865,61
431,748	892,41
432,012	948,01
432,275	966,21
432,539	1015,11
432,802	1060,01
433,066	1105,21
433,329	1130,01
433,593	1208,21
433,856	1214,81
434,119	1270,21
434,383	1321,71
434,646	1367,01
434,91	1418,31
435,173	1504,61
435,437	1530,61
435,7	1576,41
435,963	1634,71
436,227	1670,41
436,49	1755,21
436,753	1799,21
437,017	1836,21
437,28	1926,41
437,544	2029,91
437,807	2064,41
438,07	2099,41
438,334	2197,01
438,597	2242,41
438,86	2356,71
439,123	2450,21
439,387	2499,71
439,65	2606,11
439,913	2762,11
440,177	2744,61
440,44	2864,71
440,703	3016,71
440,966	3042,31
441,229	3177,21
441,493	3282,51
441,756	3485,11
442,019	3504,71
442,282	3563,41
442,545	3753,51
442,809	3861,11
443,072	3992,71
443,335	4231,51
443,598	4426,11
443,861	4451,41
444,124	4625,31
444,388	4884,71
444,651	5007,71
444,914	5104,21
445,177	5316,21
445,44	5419,01
445,703	5606,21
445,966	5870,91
446,229	6133,21
446,492	6254,91
446,755	6666,31
447,018	6677,81
447,281	6905,81
447,544	7126,21
447,807	7380,41
448,07	7732,71
448,333	7838,01
448,596	8104,21
448,859	8513,11
449,122	8661,11
449,385	8781,71
449,648	9246,61
449,911	9352,71
450,174	9786,61
450,437	9885,11
450,7	10054,91
450,963	10096,61
451,226	10599,91
451,489	10781,51
451,752	11150,61
452,015	11259,81
452,277	11205,41
452,54	11505,41
452,803	11655,01
453,066	11716,31
453,329	11963,11
453,592	12184,31
453,855	11933,11
454,117	12301,81
454,38	12282,11
454,643	12528,31
454,906	12333,31
455,169	12115,91
455,431	12199,31
455,694	12209,91
455,957	12161,81
456,22	12507,71
456,482	12034,91
456,745	11929,71
457,008	12222,91
457,271	12030,21
457,533	11889,01
457,796	11875,11
458,059	11610,41
458,321	11275,31
458,584	11187,11
458,847	11135,41
459,109	10642,61
459,372	10928,01
459,635	10450,61
459,897	10311,41
460,16	10237,71
460,423	10053,51
460,685	9728,81
460,948	9656,21
461,21	9514,51
461,473	9234,01
461,735	8892,21
461,998	8830,81
462,261	8599,31
462,523	8659,61
462,786	8407,21
463,048	8212,01
463,311	8089,91
463,573	7917,91
463,836	7710,91
464,098	7474,81
464,361	7261,61
464,623	7166,21
464,886	7094,91
465,148	7217,71
465,411	7122,11
465,673	7158,61
465,936	6979,61
466,198	6917,21
466,46	6782,11
466,723	6714,71
466,985	6562,31
467,248	6557,51
467,51	6496,21
467,772	6480,61
468,035	6380,31
468,297	6407,11
468,56	6254,61
468,822	6226,31
469,084	6222,61
469,347	6055,61
469,609	6090,91
469,871	6146,51
470,133	6041,71
470,396	6062,71
470,658	5937,01
470,92	5862,71
471,183	6005,01
471,445	5827,11
471,707	5817,21
471,969	5792,41
472,232	5704,01
472,494	5720,21
472,756	5694,91
473,018	5552,31
473,281	5657,41
473,543	5581,61
473,805	5446,41
474,067	5497,21
474,329	5362,51
474,591	5397,71
474,854	5405,21
475,116	5232,21
475,378	5196,41
475,64	5116,21
475,902	5003,51
476,164	5068,01
476,426	5008,11
476,688	4926,41
476,951	4841,21
477,213	4826,61
477,475	4702,81
477,737	4750,51
477,999	4680,01
478,261	4600,61
478,523	4534,61
478,785	4548,61
479,047	4494,71
479,309	4426,71
479,571	4367,41
479,833	4296,11
480,095	4272,31
480,357	4275,81
480,619	4152,51
480,881	4187,61
481,143	4102,31
481,405	4039,41
481,667	4051,01
481,929	4025,01
482,191	3993,41
482,452	3958,31
482,714	3953,31
482,976	3897,61
483,238	3917,41
483,5	3915,91
483,762	3851,71
484,024	3899,01
484,286	3844,61
484,547	3822,11
484,809	3774,31
485,071	3806,01
485,333	3789,91
485,595	3759,11
485,857	3758,41
486,118	3749,11
486,38	3734,31
486,642	3737,21
486,904	3732,21
487,165	3725,11
487,427	3733,11
487,689	3732,31
487,951	3748,91
488,212	3698,61
488,474	3692,61
488,736	3683,21
488,998	3688,21
489,259	3669,71
489,521	3671,91
489,783	3652,81
490,044	3657,51
490,306	3654,21
490,568	3650,71
490,829	3648,31
491,091	3613,31
491,353	3669,41
491,614	3649,41
491,876	3635,01
492,137	3647,51
492,399	3653,71
492,661	3655,11
492,922	3654,11
493,184	3652,01
493,445	3670,91
493,707	3674,21
493,968	3684,01
494,23	3699,51
494,491	3691,31
494,753	3680,01
495,014	3685,31
495,276	3726,91
495,537	3733,41
495,799	3748,51
496,06	3768,51
496,322	3799,81
496,583	3824,31
496,845	3832,71
497,106	3854,31
497,368	3864,11
497,629	3877,51
497,89	3918,11
498,152	3952,51
498,413	3997,51
498,675	3999,91
498,936	4019,61
499,197	4048,31
499,459	4100,21
499,72	4118,61
499,981	4173,21
500,243	4198,21
500,504	4239,21
500,765	4283,41
501,027	4320,31
501,288	4377,71
501,549	4385,31
501,811	4407,81
502,072	4466,11
502,333	4506,01
502,594	4544,51
502,856	4601,31
503,117	4647,91
503,378	4665,71
503,639	4722,21
503,901	4810,91
504,162	4813,71
504,423	4890,61
504,684	4925,41
504,945	4978,41
505,207	5056,71
505,468	5087,91
505,729	5105,91
505,99	5185,91
506,251	5229,01
506,512	5281,51
506,774	5356,61
507,035	5386,81
507,296	5465,91
507,557	5458,11
507,818	5528,41
508,079	5595,81
508,34	5654,81
508,601	5720,61
508,862	5767,31
509,123	5839,21
509,384	5850,21
509,645	5894,51
509,906	5971,11
510,167	5996,81
510,428	6070,71
510,689	6139,91
510,95	6167,61
511,211	6242,51
511,472	6252,21
511,733	6320,51
511,994	6351,01
512,255	6441,11
512,516	6471,81
512,777	6526,81
513,038	6587,71
513,299	6680,21
513,56	6700,61
513,821	6763,11
514,082	6813,11
514,343	6842,81
514,603	6909,31
514,864	6934,71
515,125	7007,21
515,386	7046,91
515,647	7105,11
515,908	7128,91
516,169	7188,11
516,429	7261,01
516,69	7286,91
516,951	7320,41
517,212	7386,81
517,473	7403,91
517,733	7459,81
517,994	7528,21
518,255	7547,01
518,516	7587,91
518,776	7634,41
519,037	7697,91
519,298	7744,91
519,559	7824,51
519,819	7863,41
520,08	7885,11
520,341	7959,01
520,601	7985,31
520,862	8029,71
521,123	8033,11
521,383	8080,71
521,644	8132,91
521,905	8177,41
522,165	8214,91
522,426	8284,51
522,686	8277,71
522,947	8354,11
523,208	8393,71
523,468	8404,71
523,729	8452,31
523,989	8479,91
524,25	8484,71
524,51	8568,91
524,771	8580,41
525,032	8650,51
525,292	8668,81
525,553	8690,61
525,813	8761,71
526,074	8805,01
526,334	8839,51
526,595	8858,61
526,855	8881,71
527,116	8937,21
527,376	8942,71
527,636	8951,31
527,897	9033,61
528,157	9050,31
528,418	9065,91
528,678	9072,81
528,939	9080,41
529,199	9130,11
529,459	9201,61
529,72	9231,31
529,98	9227,41
530,24	9248,51
530,501	9280,61
530,761	9233,31
531,022	9272,81
531,282	9270,01
531,542	9328,41
531,803	9353,21
532,063	9308,31
532,323	9328,01
532,583	9414,11
532,844	9431,01
533,104	9429,31
533,364	9466,71
533,624	9436,11
533,885	9480,21
534,145	9496,61
534,405	9454,61
534,665	9479,61
534,926	9518,91
535,186	9507,41
535,446	9541,01
535,706	9528,71
535,966	9534,61
536,227	9526,61
536,487	9538,31
536,747	9538,01
537,007	9546,11
537,267	9580,31
537,527	9624,81
537,787	9616,81
538,048	9614,41
538,308	9645,01
538,568	9615,61
538,828	9632,61
539,088	9638,71
539,348	9685,41
539,608	9679,01
539,868	9662,01
540,128	9697,21
540,388	9635,31
540,648	9675,81
540,908	9693,61
541,168	9678,31
541,428	9697,01
541,688	9645,01
541,948	9676,51
542,208	9694,51
542,468	9715,51
542,728	9696,61
542,988	9696,01
543,248	9670,71
543,508	9723,01
543,768	9678,41
544,028	9742,71
544,288	9697,01
544,548	9733,91
544,807	9731,41
545,067	9662,61
545,327	9695,31
545,587	9680,81
545,847	9706,61
546,107	9691,21
546,367	9679,81
546,626	9692,11
546,886	9713,81
547,146	9667,01
547,406	9702,41
547,666	9683,51
547,925	9705,61
548,185	9678,81
548,445	9703,71
548,705	9673,01
548,965	9710,91
549,224	9709,41
549,484	9656,01
549,744	9686,51
550,003	9684,11
550,263	9653,01
550,523	9634,41
550,783	9624,61
551,042	9582,71
551,302	9626,91
551,562	9608,31
551,821	9560,21
552,081	9596,61
552,341	9674,91
552,6	9622,51
552,86	9570,41
553,119	9577,81
553,379	9538,31
553,639	9570,41
553,898	9572,81
554,158	9519,51
554,417	9562,21
554,677	9557,71
554,936	9536,61
555,196	9511,51
555,456	9520,41
555,715	9490,41
555,975	9506,71
556,234	9503,11
556,494	9499,11
556,753	9447,31
557,013	9481,41
557,272	9475,31
557,532	9504,41
557,791	9450,41
558,051	9456,41
558,31	9431,91
558,569	9426,51
558,829	9408,61
559,088	9403,11
559,348	9393,21
559,607	9404,31
559,866	9365,81
560,126	9395,61
560,385	9362,11
560,645	9358,51
560,904	9300,01
561,163	9292,21
561,423	9305,41
561,682	9298,31
561,941	9287,71
562,201	9216,21
562,46	9293,01
562,719	9201,31
562,979	9211,91
563,238	9226,91
563,497	9200,71
563,756	9183,11
564,016	9217,81
564,275	9211,51
564,534	9198,81
564,793	9173,01
565,053	9152,01
565,312	9192,31
565,571	9173,81
565,83	9100,81
566,089	9075,91
566,349	9049,11
566,608	9082,21
566,867	9036,91
567,126	9007,21
567,385	8978,51
567,644	8973,21
567,903	8942,21
568,163	8932,41
568,422	8866,01
568,681	8876,11
568,94	8868,81
569,199	8812,91
569,458	8806,71
569,717	8819,61
569,976	8820,41
570,235	8768,11
570,494	8757,61
570,753	8760,81
571,012	8749,81
571,271	8659,01
571,53	8655,61
571,789	8665,81
572,048	8644,11
572,307	8651,01
572,566	8645,41
572,825	8566,41
573,084	8587,91
573,343	8598,41
573,602	8530,11
573,861	8478,31
574,12	8472,11
574,379	8492,71
574,638	8454,41
574,897	8375,11
575,156	8410,61
575,414	8376,61
575,673	8345,81
575,932	8336,11
576,191	8266,01
576,45	8284,91
576,709	8292,81
576,968	8230,21
577,226	8213,71
577,485	8201,61
577,744	8210,81
578,003	8214,61
578,262	8143,71
578,52	8122,41
578,779	8110,21
579,038	8053,91
579,297	8013,41
579,555	8006,31
579,814	8009,71
580,073	7941,91
580,332	7931,01
580,59	7902,81
580,849	7860,21
581,108	7879,71
581,366	7812,41
581,625	7787,91
581,884	7779,91
582,142	7728,61
582,401	7714,61
582,66	7724,21
582,918	7673,51
583,177	7646,91
583,436	7577,11
583,694	7612,11
583,953	7563,61
584,211	7572,01
584,47	7548,31
584,728	7497,71
584,987	7459,01
585,246	7481,01
585,504	7411,91
585,763	7372,21
586,021	7406,11
586,28	7363,91
586,538	7314,91
586,797	7323,81
587,055	7240,51
587,314	7286,41
587,572	7217,81
587,831	7205,61
588,089	7127,81
588,348	7155,21
588,606	7083,31
588,864	7072,41
589,123	7052,21
589,381	7047,71
589,64	7001,21
589,898	7010,91
590,157	6972,51
590,415	6932,91
590,673	6909,21
590,932	6893,41
591,19	6853,31
591,448	6870,81
591,707	6779,11
591,965	6805,61
592,223	6757,91
592,482	6770,71
592,74	6706,11
592,998	6669,31
593,257	6682,61
593,515	6619,51
593,773	6614,91
594,031	6583,61
594,29	6562,11
594,548	6527,81
594,806	6517,61
595,064	6522,91
595,323	6452,11
595,581	6434,91
595,839	6456,01
596,097	6421,51
596,355	6366,11
596,613	6377,81
596,872	6313,71
597,13	6316,51
597,388	6259,91
597,646	6259,61
597,904	6209,41
598,162	6203,21
598,42	6202,71
598,679	6158,91
598,937	6147,21
599,195	6114,31
599,453	6106,91
599,711	6069,61
599,969	6058,31
600,227	6031,71
600,485	6006,81
600,743	5980,61
601,001	5945,31
601,259	5925,01
601,517	5906,51
601,775	5899,71
602,033	5830,21
602,291	5832,31
602,549	5767,11
602,807	5786,91
603,065	5742,21
603,323	5728,81
603,581	5717,11
603,839	5708,71
604,097	5675,71
604,355	5664,31
604,613	5644,01
604,871	5590,51
605,128	5582,41
605,386	5542,71
605,644	5519,71
605,902	5498,41
606,16	5485,41
606,418	5470,01
606,676	5426,31
606,933	5410,01
607,191	5417,01
607,449	5371,31
607,707	5349,81
607,965	5327,41
608,223	5300,71
608,48	5260,41
608,738	5257,21
608,996	5250,61
609,254	5197,01
609,511	5170,71
609,769	5174,01
610,027	5131,81
610,285	5082,11
610,542	5102,11
610,8	5062,01
611,058	5044,01
611,315	5019,91
611,573	4993,31
611,831	4983,31
612,088	4986,41
612,346	4945,41
612,604	4939,01
612,861	4896,01
613,119	4886,41
613,376	4855,41
613,634	4838,51
613,892	4823,81
614,149	4804,81
614,407	4800,81
614,664	4748,71
614,922	4760,21
615,18	4727,41
615,437	4710,31
615,695	4666,31
615,952	4694,81
616,21	4667,11
616,467	4643,61
616,725	4624,91
616,982	4609,91
617,24	4597,71
617,497	4581,31
617,755	4595,71
618,012	4552,61
618,27	4524,51
618,527	4479,51
618,784	4467,51
619,042	4428,31
619,299	4404,71
619,557	4387,71
619,814	4370,71
620,071	4354,61
620,329	4320,71
620,586	4293,81
620,844	4291,91
621,101	4269,11
621,358	4254,81
621,616	4259,91
621,873	4224,61
622,13	4195,41
622,388	4151,61
622,645	4150,91
622,902	4146,41
623,159	4115,01
623,417	4124,51
623,674	4057,41
623,931	4047,21
624,188	4036,51
624,446	4009,01
624,703	4011,01
624,96	3995,21
625,217	3939,91
625,475	3946,21
625,732	3908,01
625,989	3881,01
626,246	3858,01
626,503	3828,51
626,761	3836,71
627,018	3796,41
627,275	3793,41
627,532	3765,21
627,789	3757,51
628,046	3738,71
628,303	3714,41
628,56	3689,11
628,818	3650,11
629,075	3631,11
629,332	3618,01
629,589	3604,01
629,846	3596,61
630,103	3552,41
630,36	3545,01
630,617	3525,31
630,874	3509,21
631,131	3494,41
631,388	3466,51
631,645	3436,61
631,902	3436,11
632,159	3394,41
632,416	3378,21
632,673	3369,41
632,93	3337,91
633,187	3313,01
633,444	3305,41
633,701	3289,21
633,958	3270,41
634,215	3233,41
634,471	3230,31
634,728	3193,11
634,985	3179,71
635,242	3165,61
635,499	3143,01
635,756	3139,81
636,013	3101,81
636,27	3080,21
636,526	3077,61
636,783	3044,01
637,04	3013,21
637,297	3025,21
637,554	2988,31
637,81	2971,11
638,067	2947,21
638,324	2939,51
638,581	2907,11
638,838	2891,61
639,094	2873,11
639,351	2851,41
639,608	2868,01
639,864	2832,01
640,121	2813,51
640,378	2784,31
640,635	2778,71
640,891	2751,81
641,148	2727,51
641,405	2708,31
641,661	2690,41
641,918	2679,51
642,175	2673,71
642,431	2653,91
642,688	2616,21
642,944	2595,41
643,201	2585,11
643,458	2595,21
643,714	2563,81
643,971	2527,61
644,227	2510,51
644,484	2521,21
644,741	2477,41
644,997	2476,11
645,254	2436,01
645,51	2442,91
645,767	2411,31
646,023	2415,71
646,28	2398,91
646,536	2380,81
646,793	2358,01
647,049	2347,21
647,306	2313,61
647,562	2295,31
647,819	2277,51
648,075	2264,41
648,331	2242,41
648,588	2238,91
648,844	2230,41
649,101	2205,81
649,357	2198,91
649,613	2174,61
649,87	2170,01
650,126	2154,21
650,383	2149,11
650,639	2129,21
650,895	2105,71
651,152	2098,01
651,408	2062,31
651,664	2047,51
651,921	2034,21
652,177	2031,11
652,433	2017,31
652,689	2000,21
652,946	1974,11
653,202	1970,01
653,458	1954,51
653,715	1940,51
653,971	1939,71
654,227	1919,41
654,483	1903,61
654,739	1900,31
654,996	1874,91
655,252	1854,31
655,508	1852,41
655,764	1839,91
656,02	1821,11
656,277	1793,51
656,533	1797,71
656,789	1782,51
657,045	1763,51
657,301	1756,31
657,557	1748,61
657,813	1729,81
658,07	1719,11
658,326	1693,51
658,582	1681,11
658,838	1685,21
659,094	1673,31
659,35	1649,21
659,606	1660,61
659,862	1625,11
660,118	1622,11
660,374	1602,71
660,63	1603,01
660,886	1591,61
661,142	1576,31
661,398	1552,81
661,654	1546,41
661,91	1539,01
662,166	1533,61
662,422	1527,41
662,678	1504,31
662,934	1500,31
663,19	1483,41
663,446	1475,61
663,702	1468,51
663,957	1447,11
664,213	1445,61
664,469	1425,31
664,725	1425,41
664,981	1412,41
665,237	1401,91
665,493	1403,71
665,749	1384,01
666,004	1378,51
666,26	1367,21
666,516	1359,01
666,772	1357,21
667,028	1338,11
667,283	1330,21
667,539	1325,31
667,795	1315,01
668,051	1308,31
668,307	1291,11
668,562	1286,31
668,818	1281,41
669,074	1272,61
669,329	1252,01
669,585	1244,71
669,841	1238,61
670,097	1229,91
670,352	1225,11
670,608	1215,51
670,864	1203,31
671,119	1193,81
671,375	1188,71
671,631	1183,31
671,886	1174,71
672,142	1168,41
672,397	1160,41
672,653	1143,51
672,909	1156,71
673,164	1133,91
673,42	1131,91
673,675	1122,71
673,931	1123,01
674,186	1103,51
674,442	1102,81
674,698	1093,81
674,953	1086,11
675,209	1078,11
675,464	1075,31
675,72	1060,41
675,975	1058,51
676,231	1058,11
676,486	1046,61
676,742	1045,11
676,997	1033,11
677,252	1020,81
677,508	1020,61
677,763	1014,01
678,019	1006,81
678,274	992,41
678,53	987,11
678,785	975,31
679,04	960,71
679,296	965,61
679,551	968,21
679,806	962,71
680,062	951,71
680,317	937,01
680,572	934,71
680,828	928,81
681,083	917,21
681,338	918,31
681,594	905,81
681,849	902,01
682,104	895,51
682,36	897,01
682,615	892,31
682,87	886,71
683,125	877,71
683,381	874,31
683,636	858,81
683,891	859,61
684,146	849,81
684,401	841,71
684,657	836,11
684,912	834,21
685,167	828,31
685,422	832,81
685,677	814,61
685,932	814,61
686,188	803,51
686,443	812,31
686,698	800,31
686,953	788,51
687,208	782,71
687,463	786,91
687,718	778,91
687,973	775,31
688,228	768,91
688,483	764,31
688,739	760,31
688,994	747,81
689,249	736,81
689,504	748,91
689,759	735,81
690,014	730,11
690,269	731,61
690,524	731,11
690,779	719,91
691,034	710,01
691,289	706,51
691,544	699,91
691,798	701,61
692,053	697,11
692,308	684,11
692,563	681,11
692,818	679,11
693,073	676,41
693,328	672,21
693,583	671,11
693,838	663,51
694,093	656,31
694,347	653,71
694,602	650,91
694,857	645,81
695,112	641,91
695,367	633,31
695,622	627,01
695,876	621,71
696,131	618,71
696,386	617,61
696,641	609,21
696,896	600,71
697,15	597,91
697,405	594,51
697,66	589,51
697,915	586,71
698,169	581,11
698,424	574,91
698,679	572,51
698,933	562,71
699,188	571,71
699,443	560,91
699,698	562,01
699,952	553,31
700,207	556,81
700,461	540,11
700,716	539,41
700,971	535,21
701,225	530,31
701,48	524,61
701,735	519,61
701,989	523,21
702,244	512,81
702,498	511,51
702,753	504,21
703,007	506,91
703,262	493,91
703,517	490,91
703,771	484,61
704,026	477,91
704,28	477,61
704,535	487,61
704,789	474,61
705,044	478,51
705,298	464,81
705,553	462,11
705,807	459,51
706,062	456,11
706,316	450,71
706,57	444,81
706,825	443,01
707,079	435,41
707,334	436,31
707,588	425,01
707,842	429,11
708,097	423,81
708,351	415,71
708,606	415,51
708,86	418,91
709,114	407,51
709,369	414,81
709,623	401,71
709,877	403,81
710,132	400,81
710,386	396,11
710,64	394,71
710,895	395,91
711,149	385,91
711,403	380,11
711,657	382,51
711,912	376,71
712,166	376,91
712,42	369,21
712,674	362,21
712,928	360,81
713,183	365,91
713,437	360,71
713,691	351,91
713,945	357,41
714,199	346,11
714,454	345,91
714,708	342,31
714,962	340,31
715,216	341,01
715,47	336,11
715,724	327,91
715,978	326,71
716,233	323,41
716,487	318,71
716,741	320,91
716,995	318,31
717,249	320,71
717,503	317,81
717,757	315,01
718,011	312,31
718,265	303,41
718,519	297,61
718,773	299,51
719,027	290,21
719,281	292,01
719,535	295,31
719,789	285,21
720,043	285,11
720,297	288,31
720,551	274,61
720,805	272,31
721,059	276,61
721,313	275,61
721,567	271,21
721,821	267,61
722,074	260,71
722,328	261,51
722,582	256,01
722,836	261,71
723,09	253,71
723,344	253,91
723,598	247,91
723,851	246,71
724,105	243,81
724,359	239,91
724,613	243,51
724,867	236,31
725,121	234,21
725,374	233,11
725,628	231,41
725,882	225,31
726,136	230,81
726,389	223,81
726,643	220,91
726,897	224,21
727,151	216,01
727,404	219,21
727,658	216,91
727,912	214,91
728,165	213,01
728,419	208,21
728,673	210,41
728,926	203,41
729,18	206,51
729,434	206,61
729,687	199,91
729,941	197,21
730,195	195,21
730,448	200,71
730,702	192,31
730,955	190,11
731,209	190,11
731,462	187,91
731,716	183,21
731,97	181,11
732,223	179,91
732,477	183,31
732,73	179,11
732,984	181,61
733,237	179,31
733,491	172,51
733,744	174,11
733,998	174,61
734,251	168,71
734,505	164,21
734,758	164,91
735,012	165,81
735,265	160,81
735,518	158,61
735,772	158,41
736,025	159,31
736,279	156,11
736,532	158,51
736,785	156,51
737,039	153,21
737,292	151,01
737,546	153,41
737,799	145,91
738,052	148,51
738,306	143,71
738,559	144,91
738,812	138,11
739,066	148,31
739,319	140,11
739,572	134,61
739,825	135,11
740,079	135,81
740,332	132,81
740,585	134,21
740,838	128,11
741,092	134,31
741,345	132,11
741,598	129,21
741,851	128,71
742,104	128,71
742,358	121,51
742,611	130,01
742,864	118,11
743,117	127,31
743,37	122,01
743,623	124,31
743,877	117,31
744,13	114,81
744,383	121,31
744,636	113,01
744,889	111,11
745,142	113,41
745,395	112,11
745,648	113,71
745,901	110,51
746,154	106,51
746,408	107,11
746,661	108,91
746,914	105,61
747,167	101,51
747,42	103,61
747,673	106,61
747,926	99,51
748,179	98,51
748,432	96,81
748,685	100,81
748,938	97,61
749,19	95,81
749,443	96,71
749,696	89,51
749,949	94,81
750,202	94,91
750,455	92,91
750,708	93,21
750,961	89,71
751,214	89,61
751,467	90,41
751,719	86,41
751,972	84,31
752,225	91,01
752,478	86,91
752,731	79,41
752,984	82,31
753,236	86,01
753,489	80,81
753,742	82,41
753,995	82,61
754,248	78,21
754,5	80,91
754,753	79,81
755,006	80,21
755,259	81,11
755,511	77,51
755,764	76,41
756,017	75,31
756,269	77,61
756,522	71,11
756,775	70,71
757,027	74,21
757,28	72,41
757,533	67,51
757,785	71,91
758,038	69,31
758,291	71,31
758,543	69,01
758,796	67,81
759,049	68,01
759,301	65,71
759,554	65,01
759,806	63,71
760,059	61,61
760,311	63,11
760,564	63,91
760,817	58,41
761,069	63,01
761,322	62,91
761,574	61,11
761,827	62,31
762,079	63,21
762,332	58,11
762,584	60,21
762,837	56,81
763,089	53,21
763,341	55,01
763,594	56,01
763,846	54,21
764,099	55,71
764,351	61,11
764,604	56,91
764,856	58,51
765,108	53,61
765,361	53,61
765,613	52,31
765,865	54,51
766,118	49,81
766,37	54,81
766,623	50,71
766,875	48,21
767,127	47,31
767,379	47,81
767,632	48,81
767,884	51,51
768,136	50,51
768,389	45,71
768,641	51,31
768,893	46,91
769,145	51,71
769,398	48,71
769,65	47,21
769,902	42,81
770,154	46,81
770,406	48,11
770,659	45,71
770,911	44,91
771,163	43,21
771,415	41,61
771,667	42,21
771,919	43,81
772,172	45,11
772,424	45,01
772,676	40,81
772,928	46,11
773,18	42,11
773,432	42,01
773,684	41,01
773,936	37,61
774,188	33,71
774,44	39,31
774,693	38,41
774,945	35,01
775,197	38,91
775,449	44,91
775,701	39,51
775,953	39,31
776,205	37,21
776,457	38,21
776,709	38,41
776,961	36,21
777,213	31,01
777,464	35,81
777,716	32,81
777,968	35,21
778,22	38,01
778,472	32,01
778,724	35,41
778,976	38,11
779,228	40,21
779,48	34,41
779,732	34,51
779,984	36,51
780,235	36,51
780,487	33,51
780,739	37,11
780,991	31,11
781,243	30,31
781,494	31,91
781,746	32,01
781,998	30,61
782,25	30,61
782,502	33,81
782,753	27,71
783,005	33,51
783,257	31,41
783,509	27,61
783,76	27,41
784,012	29,41
784,264	28,21
784,515	32,11
784,767	28,51
785,019	28,71
785,271	27,71
785,522	26,61
785,774	24,41
786,026	27,81
786,277	25,61
786,529	25,81
786,78	25,81
787,032	29,01
787,284	25,61
787,535	26,61
787,787	25,31
788,038	24,41
788,29	25,21
788,541	25,91
788,793	29,31
789,045	23,41
789,296	26,11
789,548	21,51
789,799	22,61
790,051	27,81
790,302	27,81
790,554	24,11
790,805	24,41
791,057	26,01
791,308	23,01
791,559	28,31
791,811	21,61
792,062	25,81
792,314	22,21
792,565	22,21
792,817	23,31
793,068	22,91
793,319	24,61
793,571	22,51
793,822	22,51
794,073	25,51
794,325	20,91
794,576	23,11
794,827	20,31
795,079	24,61
795,33	20,41
795,581	24,81
795,833	19,01
796,084	20,21
796,335	22,81
796,587	24,81
796,838	19,21
797,089	19,31
797,34	22,11
797,592	20,01
797,843	21,01
798,094	20,91
798,345	18,71
798,596	19,21
798,848	18,71
799,099	19,21
799,35	21,11
799,601	19,71
799,852	18,51
800,103	19,31
800,355	15,81
800,606	23,31
800,857	19,21
801,108	19,21
801,359	19,51
801,61	19,51
801,861	17,51
802,112	21,01
802,363	15,81
802,614	16,61
802,865	21,31
803,116	19,81
803,367	20,11
803,618	20,61
803,869	20,31
804,12	19,61
804,371	19,11
804,622	18,21
804,873	15,71
805,124	16,71
805,375	17,31
805,626	17,11
805,877	17,61
806,128	17,61
806,379	13,11
806,63	16,81
806,881	15,11
807,132	17,81
807,383	14,91
807,634	15,01
807,884	17,21
808,135	15,01
808,386	15,11
808,637	17,61
808,888	19,21
809,139	14,11
809,389	16,11
809,64	18,71
809,891	16,21
810,142	17,51
810,393	13,81
810,643	17,21
810,894	16,11
811,145	22,81
811,396	15,81
811,646	17,51
811,897	17,91
812,148	17,71
812,398	15,81
812,649	11,91
812,9	15,91
813,151	20,01
813,401	18,81
813,652	22,11
813,902	19,01
814,153	13,51
814,404	17,91
814,654	14,01
814,905	17,41
815,156	15,81
815,406	14,21
815,657	14,71
815,907	11,11
816,158	15,61
816,408	12,41
816,659	20,01
816,91	16,91
817,16	16,01
817,411	14,31
817,661	15,91
817,912	11,61
818,162	16,31
818,413	14,31
818,663	18,21
818,914	16,11
819,164	12,61
819,414	12,51
819,665	17,21
819,915	14,21
820,166	13,81
820,416	11,61
820,667	13,21
820,917	13,61
821,167	16,01
821,418	13,91
821,668	17,11
821,918	12,71
822,169	15,11
822,419	16,61
822,67	16,51
822,92	15,21
823,17	14,91
823,42	13,81
823,671	12,91
823,921	13,91
824,171	17,31
824,422	10,41
824,672	11,91
824,922	12,51
825,172	12,61
825,423	15,71
825,673	13,61
825,923	15,41
826,173	13,61
826,423	15,01
826,674	14,21
826,924	16,41
827,174	12,11
827,424	14,31
827,674	13,71
827,924	11,31
828,175	12,51
828,425	12,11
828,675	11,81
828,925	10,01
829,175	10,71
829,425	11,91
829,675	8,61
829,925	13,51
830,175	12,91
830,425	13,81
830,675	9,11
830,925	11,91
831,175	11,11
831,425	15,01
831,676	14,51
831,926	12,91
832,175	11,61
832,425	11,11
832,675	9,81
832,925	9,71
833,175	12,01
833,425	13,71
833,675	12,11
833,925	12,01
834,175	14,71
834,425	13,91
834,675	11,81
834,925	13,11
835,175	10,11
835,425	12,61
835,674	14,51
835,924	11,31
836,174	9,21
836,424	10,61
836,674	13,41
836,924	13,11
837,173	12,01
837,423	13,81
837,673	13,51
837,923	13,21
838,173	9,71
838,422	12,01
838,672	12,71
838,922	13,81
839,172	12,71
839,421	13,61
839,671	10,61
839,921	16,01
840,17	9,41
840,42	9,71
840,67	15,21
840,919	10,41
841,169	12,61
841,419	12,01
841,668	10,81
841,918	12,71
842,168	10,51
842,417	11,51
842,667	12,11
842,916	8,71
843,166	9,31
843,416	10,31
843,665	15,41
843,915	12,81
844,164	14,41
844,414	16,21
844,663	17,31
844,913	12,41
845,162	9,71
845,412	8,71
845,662	12,91
845,911	13,51
846,16	12,31
846,41	10,41
846,659	10,61
846,909	11,41
847,158	16,21
847,408	13,41
847,657	6,91
847,907	8,71
848,156	6,51
848,405	11,91
848,655	9,31
848,904	13,51
849,154	15,31
849,403	12,71
849,652	12,91
849,902	10,81
850,151	11,81
850,4	11,51
850,65	15,21
850,899	9,81
851,148	12,31
851,398	10,31
851,647	15,61
851,896	9,81
852,145	15,81
852,395	10,11
852,644	10,41
852,893	8,51
853,142	13,61
853,392	9,71
853,641	11,21
853,89	8,81
854,139	11,01
854,388	10,71
854,637	11,11
854,887	11,41
855,136	12,21
855,385	7,91
855,634	6,91
855,883	11,21
856,132	8,41
856,381	12,31
856,631	11,81
856,88	12,91
857,129	10,31
857,378	8,21
857,627	11,61
857,876	10,51
858,125	8,71
858,374	6,51
858,623	8,21
858,872	10,31
859,121	11,41
859,37	11,91
859,619	8,21
859,868	11,91
860,117	11,61
860,366	13,01
860,615	10,31
860,864	9,71
861,113	9,31
861,362	8,81
861,611	9,71
861,86	11,61
862,108	11,81
862,357	10,91
862,606	8,71
862,855	9,01
863,104	7,31
863,353	11,11
863,602	11,41
863,851	9,31
864,099	14,71
864,348	10,41
864,597	6,11
864,846	7,31
865,095	8,91
865,343	9,61
865,592	9,61
865,841	9,81
866,09	8,41
866,338	9,11
866,587	8,31
866,836	8,91
867,085	8,51
867,333	6,11
867,582	8,91
867,831	8,81
868,079	11,21
868,328	12,71
868,577	14,41
868,825	7,91
869,074	8,31
869,323	15,61
869,571	9,91
869,82	8,41
870,068	12,61
870,317	8,91
870,566	8,51
870,814	7,21
871,063	9,21
871,311	9,61
871,56	9,91
871,808	10,91
872,057	11,01
872,306	8,81
872,554	10,51
872,803	7,81
873,051	10,81
873,3	11,01
873,548	8,01
873,797	9,91
874,045	12,11
874,293	9,41
874,542	9,91
874,79	9,91
875,039	7,51
875,287	10,81
875,536	12,61
875,784	12,01
876,032	9,31
876,281	8,81
876,529	8,71
876,777	11,01
877,026	9,11
877,274	10,41
877,523	3,61
877,771	7,71
878,019	9,41
878,267	7,61
878,516	7,11
878,764	9,81
879,012	9,01
879,261	9,81
879,509	13,31
879,757	5,41
880,005	10,91
880,254	8,11
880,502	10,11
880,75	6,91
880,998	10,01
881,246	9,71
881,495	8,01
881,743	10,21
881,991	6,81
882,239	6,91
882,487	8,61
882,735	10,21
882,984	5,41
883,232	7,31
883,48	7,71
883,728	7,11
883,976	4,81
884,224	6,01
884,472	6,11
884,72	8,11
884,968	9,81
885,216	4,51
885,464	8,31
885,712	8,61
885,96	7,71
886,208	8,11
886,457	6,61
886,704	2,51
886,952	6,61
887,2	9,01
887,448	7,41
887,696	6,31
887,944	6,01
888,192	3,51
888,44	3,21
888,688	7,51
888,936	9,01
889,184	5,71
889,432	5,51
889,68	4,61
889,928	3,71
890,175	0,41
890,423	8,61
890,671	4,71
890,919	7,01
891,167	6,71
891,415	3,91
891,663	5,61
891,91	7,51
892,158	1,91
892,406	4,51
892,654	7,01
892,901	6,41
893,149	3,11
893,397	5,41
893,645	6,21
893,892	8,81
894,14	4,61
894,388	7,71
894,636	7,01
894,883	10,01
895,131	8,01
895,379	5,61
895,626	8,31
895,874	6,31
896,122	6,41
896,369	7,81
896,617	6,61
896,864	4,11
897,112	4,91
897,36	6,11
897,607	6,51
897,855	4,51
898,102	7,81
898,35	6,41
898,598	5,81
898,845	5,01
899,093	6,01
899,34	4,81
899,588	4,71
899,835	4,71
900,083	6,01
900,33	6,21
900,578	10,01
900,825	2,31
901,073	4,61
901,32	7,31
901,568	6,61
901,815	2,41
902,062	4,91
902,31	5,71
902,557	5,91
902,805	9,01
903,052	5,71
903,299	6,91
903,547	5,71
903,794	1,91
904,042	3,71
904,289	5,51
904,536	4,91
904,784	7,71
905,031	6,31
905,278	5,71
905,525	3,61
905,773	2,91
906,02	5,91
906,267	7,91
906,515	5,21
906,762	4,01
907,009	7,41
907,256	8,01
907,504	4,91
907,751	1,81
907,998	4,31
908,245	7,01
908,492	8,11
908,74	2,21
908,987	2,81
909,234	7,71
909,481	3,61
909,728	3,41
909,975	4,91
910,222	2,31
910,47	4,01
910,717	2,61
910,964	2,01
911,211	3,41
911,458	1,51
911,705	5,51
911,952	2,11
912,199	8,11
912,446	1,91
912,693	4,91
912,94	2,71
913,187	-0,19
913,434	4,61
913,681	4,91
913,928	-1,69
914,175	6,91
914,422	3,81
914,669	5,11
914,916	0,41
915,163	3,41
915,41	1,91
915,657	4,81
915,904	5,31
916,151	6,71
916,398	3,11
916,644	1,71
916,891	2,91
917,138	5,51
917,385	7,11
917,632	3,81
917,879	0,91
918,126	2,51
918,372	2,61
918,619	5,11
918,866	4,51
919,113	4,31
919,36	4,31
919,606	4,11
919,853	3,31
920,1	4,11
920,347	3,71
920,593	2,51
920,84	5,21
921,087	3,71
921,334	1,81
921,58	2,81
921,827	4,41
922,074	1,81
922,32	2,31
922,567	0,41
922,814	4,81
923,06	3,11
923,307	1,81
923,554	3,81
923,8	1,81
924,047	1,51
924,293	2,21
924,54	5,71
924,787	0,41
925,033	4,01
925,28	1,11
925,526	4,31
925,773	2,01
926,019	3,21
926,266	2,41
926,512	0,51
926,759	6,41
927,005	4,11
927,252	0,11
927,498	3,01
927,745	2,91
927,991	0,11
928,238	3,51
928,484	0,81
928,731	4,91
928,977	0,81
929,223	4,31
929,47	1,31
929,716	-0,09
929,963	2,61
930,209	6,81
930,455	4,91
930,702	2,71
930,948	1,81
931,194	0,51
931,441	0,71
931,687	5,81
931,933	4,01
932,18	3,91
932,426	1,51
932,672	4,31
932,919	-0,19
933,165	1,21
933,411	1,51
933,657	2,11
933,904	5,81
934,15	3,01
934,396	2,41
934,642	-0,39
934,889	1,91
935,135	0,21
935,381	3,41
935,627	-0,99
935,873	2,71
936,119	1,31
936,366	3,91
936,612	-1,59
936,858	3,61
937,104	2,41
937,35	3,51
937,596	1,41
937,842	3,51
938,088	2,21
938,334	1,21
938,58	-0,69
938,827	2,31
939,073	4,91
939,319	1,21
939,565	3,21
939,811	0,01
940,057	-0,39
940,303	-0,39
940,549	2,61
940,795	4,71
941,041	2,71
941,287	1,81
941,533	3,31
941,778	3,81
942,024	-0,69
942,27	-1,39
942,516	-2,39
942,762	2,41
943,008	1,01
943,254	1,41
943,5	-0,89
943,746	0,71
943,992	2,81
944,237	5,31
944,483	4,01
944,729	1,81
944,975	2,91
945,221	5,81
945,467	3,11
945,712	0,01
945,958	2,31
946,204	3,81
946,45	-0,79
946,695	1,11
946,941	-0,69
947,187	2,61
947,433	1,81
947,678	4,11
947,924	0,91
948,17	3,01
948,415	2,81
948,661	-0,29
948,907	4,51
949,153	4,41
949,398	2,11
949,644	1,81
949,889	2,61
950,135	0,71
950,381	3,91
950,626	3,61
950,872	3,91
951,118	2,91
951,363	2,11
951,609	3,21
951,854	1,11
952,1	3,21
952,345	1,91
952,591	2,51
952,836	-0,09
953,082	1,61
953,327	0,81
953,573	0,21
953,818	2,41
954,064	0,51
954,309	0,41
954,555	-0,49
954,8	-3,59
955,046	-3,19
955,291	1,31
955,537	5,11
955,782	3,01
956,027	3,71
956,273	0,41
956,518	0,61
956,764	-1,09
957,009	-0,39
957,254	1,01
957,5	5,21
957,745	0,81
957,99	1,11
958,236	0,81
958,481	2,61
958,726	-0,79
958,972	3,51
959,217	0,31
959,462	5,11
959,707	3,21
959,953	3,51
960,198	2,51
960,443	2,61
960,688	2,01
960,934	0,51
961,179	1,31
961,424	-1,49
961,669	5,61
961,914	1,91
962,16	0,31
962,405	-1,59
962,65	2,21
962,895	1,71
963,14	2,71
963,385	-2,19
963,63	-0,09
963,876	0,21
964,121	-0,49
964,366	0,51
964,611	1,51
964,856	4,41
965,101	3,51
965,346	4,81
965,591	3,61
965,836	2,01
966,081	0,11
966,326	-1,79
966,571	1,91
966,816	0,61
967,061	1,61
967,306	4,81
967,551	-1,09
967,796	0,11
968,041	0,11
968,286	1,71
968,531	-1,99
968,776	3,11
969,021	2,31
969,266	6,31
969,511	1,01
969,755	2,91
970	-1,29
970,245	1,71
970,49	1,51
970,735	5,71
970,98	2,61
971,225	3,61
971,469	0,11
971,714	3,41
971,959	3,41
972,204	3,31
972,449	-1,99
972,693	-0,79
972,938	-1,29
973,183	0,61
973,428	-3,59
973,672	-1,19
973,917	3,21
974,162	3,81
974,407	3,31
974,651	3,31
974,896	0,91
975,141	5,01
975,385	-0,39
975,63	4,51
975,875	1,91
976,119	6,71
976,364	0,71
976,608	-0,99
976,853	4,21
977,098	7,91
977,342	3,61
977,587	7,41
977,831	1,71
978,076	2,31
978,321	5,41
978,565	3,81
978,81	2,61
979,054	4,41
979,299	4,61
979,543	1,81
979,788	1,01
980,032	2,51
980,277	4,81
980,521	1,41
980,766	0,31
981,01	5,11
981,255	2,81
981,499	4,91
981,743	4,71
981,988	2,61
982,232	3,91
982,477	4,31
982,721	2,71
982,965	0,31
983,21	0,81
983,454	5,11
983,699	3,91
983,943	3,51
984,187	1,41
984,432	0,81
984,676	3,81
984,92	2,61
985,165	4,61
985,409	1,61
985,653	0,31
985,897	2,21
986,142	3,21
986,386	3,51
986,63	-0,89
986,874	1,31
987,119	-0,39
987,363	-0,79
987,607	-0,69
987,851	1,21
988,095	1,81
988,34	4,81
988,584	3,11
988,828	5,81
989,072	5,11
989,316	2,91
989,56	-2,69
989,804	1,51
990,049	5,71
990,293	4,01
990,537	5,51
990,781	5,61
991,025	-0,09
991,269	4,01
991,513	-0,89
991,757	4,11
992,001	3,81
992,245	2,61
992,489	0,31
992,733	1,21
992,977	4,81
993,221	2,11
993,465	0,21
993,709	4,01
993,953	3,91
994,197	2,11
994,441	3,81
994,685	4,01
994,929	4,01
995,173	4,21
995,417	4,01
995,661	2,61
995,904	1,11
996,148	3,71
996,392	1,91
996,636	3,01
996,88	6,01
997,124	1,81
997,368	0,51
997,611	4,51
997,855	-0,09
998,099	2,51
998,343	-0,89
998,587	2,61
998,83	5,41
999,074	5,41
999,318	1,11
999,562	2,31
999,805	2,61
1000,049	4,81
1000,293	1,01
1000,537	3,81
1000,78	4,51
1001,024	4,01
1001,268	5,01
1001,511	6,01
1001,755	7,91
1001,999	1,51
1002,242	5,81
1002,486	5,81
1002,73	5,31
1002,973	6,51
1003,217	3,31
1003,46	4,11
1003,704	3,51
1003,948	4,51
1004,191	0,31
1004,435	7,21
1004,678	3,21
1004,922	4,71
1005,165	4,21
1005,409	5,11
1005,652	2,71
1005,896	7,31
1006,139	3,51
1006,383	3,31
1006,626	3,81
1006,87	7,61
1007,113	3,11
1007,357	5,61
1007,6	6,61
1007,844	4,51
1008,087	2,91
1008,33	0,11
1008,574	5,71
1008,817	5,01
1009,061	2,51
1009,304	2,61
1009,547	3,21
1009,791	3,81
1010,034	3,71
1010,277	7,21
1010,521	4,31
1010,764	1,71
1011,007	2,11
1011,251	1,91
1011,494	5,11
1011,737	6,31
1011,98	1,91
1012,224	5,71
1012,467	3,51
1012,71	5,51
1012,953	4,11
1013,197	1,01
1013,44	4,51
1013,683	4,21
1013,926	6,11
1014,169	4,31
1014,413	4,81
1014,656	4,71
1014,899	-0,09
1015,142	6,41
1015,385	6,31
1015,628	6,81
1015,871	3,71
1016,115	6,11
1016,358	-1,59
1016,601	5,91
1016,844	-0,19
1017,087	-0,39
1017,33	3,01
1017,573	3,01
1017,816	4,71
1018,059	7,51
1018,302	5,41
1018,545	4,01
1018,788	4,61
1019,031	4,71
1019,274	2,91
1019,517	3,71
1019,76	2,91
1020,003	3,61
1020,246	0,21
1020,489	3,21
1020,732	5,41
1020,975	4,11
1021,218	5,41
1021,461	3,51
1021,703	7,11
1021,946	5,91
1022,189	5,21
1022,432	3,01
1022,675	6,41
1022,918	6,11
1023,161	3,41
1023,403	1,61
1023,646	5,71
1023,889	2,61
1024,132	3,61
1024,375	8,71
1024,617	5,41
1024,86	2,41
1025,103	0,61
1025,346	7,91
1025,588	3,41
1025,831	3,31
1026,074	1,71
1026,317	0,91
1026,559	1,51
1026,802	4,01
1027,045	5,11
1027,287	2,01
1027,53	3,31
1027,773	3,01
1028,015	3,71
1028,258	5,81
1028,501	6,21
1028,743	5,71
1028,986	5,11
1029,228	6,21
1029,471	4,71
1029,714	6,61
1029,956	6,11
1030,199	6,41
1030,441	5,01
1030,684	4,01
1030,926	7,31
1031,169	5,61
1031,411	1,41
1031,654	4,61
1031,896	2,21
1032,139	4,71
1032,381	4,81
1032,624	6,01
1032,866	2,71
1033,109	5,31
1033,351	2,71
1033,594	4,41
1033,836	5,91
1034,079	2,81
1034,321	3,91
1034,563	5,71
1034,806	6,11
1035,048	6,01
1035,29	-0,39
1035,533	7,31
1035,775	5,51
1036,018	4,61
1036,26	3,21
1036,502	8,01
1036,744	7,81
1036,987	4,01
1037,229	2,81
1037,471	4,41
1037,714	6,41
1037,956	1,91
1038,198	2,01
1038,44	8,31
1038,683	7,11
1038,925	5,01
1039,167	3,81
1039,409	5,41
1039,651	5,41
1039,894	4,71
1040,136	3,51
1040,378	6,71
1040,62	7,91
1040,862	5,91
1041,104	3,61
1041,347	5,81
1041,589	2,81
1041,831	6,21
1042,073	5,01
1042,315	4,41
1042,557	6,41
1042,799	3,41
1043,041	5,31
1043,283	4,01
1043,525	3,21
1043,767	4,71
1044,009	6,11
1044,251	3,31
1044,493	3,21
1044,735	7,21
1044,977	2,21
1045,219	3,21
1045,461	3,71
1045,703	3,11
1045,945	3,01
1046,187	5,21
1046,429	5,81
1046,671	3,11
1046,913	8,21
1047,155	7,21
1047,397	3,51
1047,639	5,51
1047,881	5,61
1048,122	5,21
1048,364	7,31
1048,606	8,11
1048,848	2,51
1049,09	9,01
1049,332	5,91
1049,573	2,31
1049,815	3,71
1050,057	6,11
1050,299	1,41
1050,541	5,61
1050,782	4,41
1051,024	5,11
1051,266	4,01
1051,508	5,91
1051,749	9,91
1051,991	3,21
1052,233	6,31
1052,474	2,61
1052,716	4,81
1052,958	9,61
1053,199	6,81
1053,441	7,11
1053,683	4,51
1053,924	7,61
1054,166	8,01
1054,408	4,01
1054,649	5,51
1054,891	10,01
1055,132	5,61
1055,374	3,01
1055,616	6,01
1055,857	3,61
1056,099	0,61
1056,34	4,41
1056,582	4,41
1056,823	8,71
1057,065	8,01
1057,306	5,31
1057,548	7,51
1057,789	3,81
1058,031	6,71
1058,272	6,51
1058,514	6,11
1058,755	7,21
1058,997	5,31
1059,238	4,91
1059,479	5,11
1059,721	3,21
1059,962	3,61
1060,204	2,11
1060,445	3,31
1060,686	2,71
1060,928	3,81
1061,169	3,91
1061,41	5,21
1061,652	2,81
1061,893	4,71
1062,134	6,61
1062,376	3,11
1062,617	5,61
1062,858	7,11
1063,1	5,41
1063,341	3,01
1063,582	5,61
1063,823	4,61
1064,065	5,91
1064,306	1,31
1064,547	4,21
1064,788	7,01
1065,029	2,51
1065,271	2,61
1065,512	3,31
1065,753	0,51
1065,994	8,51
1066,235	4,91
1066,476	7,11
1066,718	6,51
1066,959	6,21
1067,2	4,41
1067,441	5,91
1067,682	3,81
1067,923	5,91
1068,164	0,81
1068,405	4,21
1068,646	4,01
1068,887	6,31
1069,128	3,51
1069,369	0,61
1069,61	5,11
1069,851	3,81
1070,092	0,41
1070,333	4,41
1070,574	2,81
1070,815	8,91
1071,056	5,41
1071,297	7,51
1071,538	4,51
1071,779	7,61
1072,02	6,51
1072,261	5,61
1072,502	1,71
1072,743	5,01
1072,984	4,71
1073,225	7,11
1073,466	5,71
1073,706	4,71
1073,947	5,41
1074,188	4,21
1074,429	2,11
1074,67	4,81
1074,911	3,41
1075,151	1,31
1075,392	2,01
1075,633	6,01
1075,874	6,31
1076,114	5,01
1076,355	1,41
1076,596	6,31
1076,837	5,21
1077,077	5,21
1077,318	2,61
1077,559	2,41
1077,8	5,61
1078,04	7,31
1078,281	3,31
1078,522	1,61
1078,762	4,81
1079,003	3,21
1079,244	6,11
1079,484	0,11
1079,725	1,81
1079,965	7,01
1080,206	3,91
1080,447	6,91
1080,687	3,21
1080,928	3,11
1081,168	1,11
1081,409	2,31
1081,649	-0,49
1081,89	4,81
1082,131	7,61
1082,371	4,41
1082,612	6,31
1082,852	0,61
1083,093	7,31
1083,333	6,21
1083,573	4,21
1083,814	6,31
1084,054	5,21
1084,295	6,31
1084,535	7,51
1084,776	4,91
1085,016	3,51
1085,257	3,41
1085,497	3,61
1085,737	4,11
1085,978	1,51
1086,218	4,91
1086,458	3,31
1086,699	4,41
1086,939	6,61
1087,179	2,31
1087,42	4,31
1087,66	4,91
1087,9	6,11
1088,141	3,71
1088,381	4,91
1088,621	2,41
1088,861	4,71
1089,102	3,81
1089,342	4,21
1089,582	2,81
1089,822	3,81
1090,063	2,61
1090,303	4,81
1090,543	2,91
1090,783	4,71
1091,023	6,41
1091,263	5,11
1091,504	5,11
1091,744	-0,49
1091,984	2,91
1092,224	1,71
1092,464	3,71
1092,704	7,41
1092,944	1,01
1093,184	4,81
1093,425	4,61
1093,665	4,71
1093,905	3,21
1094,145	2,81
1094,385	4,81
1094,625	1,21
1094,865	4,51
1095,105	-1,39
1095,345	5,61
1095,585	0,61
1095,825	1,51
1096,065	3,21
1096,305	0,41
1096,545	3,31
1096,785	3,01
1097,025	1,91
1097,265	7,51
1097,504	3,71
1097,744	3,61
1097,984	8,71
1098,224	3,41
1098,464	4,71
1098,704	1,81
1098,944	2,31
1099,184	4,31
1099,423	5,61
1099,663	5,51
1099,903	-0,79
1100,143	0,21
1100,383	2,61
1100,622	3,31
1100,862	1,81
1101,102	1,81
1101,342	3,81
1101,582	2,91
1101,821	1,51
1102,061	5,21
1102,301	3,11
1102,54	3,21
1102,78	3,81
1103,02	3,21
1103,26	3,91
1103,499	0,81
1103,739	-0,59
1103,979	1,21
1104,218	2,11
1104,458	3,91
1104,697	1,91
1104,937	6,01
1105,177	3,31
1105,416	1,41
1105,656	5,01
1105,896	2,01
1106,135	4,31
1106,375	2,91
1106,614	4,21
1106,854	3,51
1107,093	3,81
1107,333	2,51
1107,572	3,61
1107,812	4,81
1108,051	7,81
1108,291	2,31
1108,53	1,71
1108,77	4,11
1109,009	2,41
1109,249	5,71
1109,488	1,61
1109,728	4,41
1109,967	-2,29
1110,206	3,11
1110,446	-0,09
1110,685	0,81
1110,925	0,91
1111,164	4,51
1111,403	2,71
1111,643	3,81
1111,882	2,41
1112,121	2,71
1112,361	1,51
1112,6	0,21
1112,839	-0,29
1113,079	2,01
1113,318	-1,79
1113,557	3,41
1113,796	1,61
1114,036	2,01
1114,275	1,01
1114,514	2,61
1114,753	-1,79
1114,993	5,31
1115,232	4,01
1115,471	6,01
1115,71	5,01
1115,949	2,71
1116,188	-1,69
1116,428	1,81
1116,667	-1,89
1116,906	1,01
1117,145	5,91
1117,384	3,91
1117,623	1,61
1117,862	0,01
1118,101	0,01
1118,341	3,71
1118,58	2,61
1118,819	-0,49
1119,058	1,31
1119,297	-0,99
1119,536	3,01
1119,775	3,11
1120,014	0,71
1120,253	-0,29
1120,492	1,21
1120,731	4,81
1120,97	1,91
1121,209	4,91
1121,448	3,41
1121,687	0,31
1121,926	-1,29
1122,165	0,91
1122,404	0,51
1122,642	2,71
1122,881	0,21
1123,12	1,41
1123,359	1,81
1123,598	2,01
1123,837	1,11
1124,076	3,41
1124,315	1,51
1124,553	0,81
1124,792	-2,69
1125,031	2,51
1125,27	-1,39
1125,509	4,01
1125,747	0,91
1125,986	7,41
1126,225	3,01
